Phone timestamp;sensor timestamp [ns];channel 0;channel 1;channel 2;ambient
2022-04-25T11:39:36.029;704201975160879838;261545;278928;293066;-644;
2022-04-25T11:39:36.047;704201975179146386;261520;279044;293112;-624;
2022-04-25T11:39:36.065;704201975197412934;261546;279037;293187;-559;
2022-04-25T11:39:36.083;704201975215679482;261356;278853;293102;-611;
2022-04-25T11:39:36.102;704201975233946030;261287;278816;293063;-639;
2022-04-25T11:39:36.120;704201975252212578;261116;278653;292818;-558;
2022-04-25T11:39:36.138;704201975270479126;260929;278530;292619;-552;
2022-04-25T11:39:36.156;704201975288745674;260687;278310;292431;-603;
2022-04-25T11:39:36.175;704201975307012222;260531;278124;292241;-596;
2022-04-25T11:39:36.193;704201975325278770;260301;277888;291971;-630;
2022-04-25T11:39:36.211;704201975343545318;259996;277607;291781;-607;
2022-04-25T11:39:36.229;704201975361811866;259756;277474;291595;-549;
2022-04-25T11:39:36.248;704201975380078414;259582;277277;291342;-554;
2022-04-25T11:39:36.266;704201975398344962;259268;277067;291084;-572;
2022-04-25T11:39:36.284;704201975416611510;259117;276949;290930;-522;
2022-04-25T11:39:36.302;704201975434878058;258846;276730;290711;-607;
2022-04-25T11:39:36.321;704201975453144606;258643;276551;290547;-610;
2022-04-25T11:39:36.339;704201975471411154;258573;276426;290401;-635;
2022-04-25T11:39:36.357;704201975489677702;258434;276375;290399;-558;
2022-04-25T11:39:36.376;704201975507944250;258298;276289;290244;-611;
2022-04-25T11:39:36.394;704201975526210798;258174;276229;290133;-591;
2022-04-25T11:39:36.412;704201975544477346;258114;276199;290060;-550;
2022-04-25T11:39:36.430;704201975562743894;258026;276300;289944;-579;
2022-04-25T11:39:36.449;704201975581010442;258011;276408;289897;-556;
2022-04-25T11:39:36.467;704201975599276990;257907;276551;289921;-536;
2022-04-25T11:39:36.485;704201975617543538;257955;276720;289918;-497;
2022-04-25T11:39:36.503;704201975635810086;257826;276853;289975;-502;
2022-04-25T11:39:36.522;704201975654076634;257783;276949;289996;-502;
2022-04-25T11:39:36.540;704201975672343182;257699;277078;289975;-505;
2022-04-25T11:39:36.558;704201975690609730;257749;277170;290017;-488;
2022-04-25T11:39:36.576;704201975708876278;257696;277248;290079;-533;
2022-04-25T11:39:36.595;704201975727142826;257638;277283;290058;-549;
2022-04-25T11:39:36.613;704201975745409374;257639;277356;290094;-511;
2022-04-25T11:39:36.631;704201975763675922;257733;277487;290170;-518;
2022-04-25T11:39:36.650;704201975781942470;257712;277480;290188;-511;
2022-04-25T11:39:36.668;704201975800209018;257811;277620;290277;-516;
2022-04-25T11:39:36.686;704201975818475566;257794;277649;290265;-516;
2022-04-25T11:39:36.704;704201975836742114;257887;277801;290421;-514;
2022-04-25T11:39:36.723;704201975855008662;258029;277941;290566;-470;
2022-04-25T11:39:36.741;704201975873275210;258099;278073;290640;-554;
2022-04-25T11:39:36.759;704201975891541758;258156;278205;290715;-523;
2022-04-25T11:39:36.777;704201975909808306;258276;278301;290827;-538;
2022-04-25T11:39:36.796;704201975928074890;258361;278451;290961;-543;
2022-04-25T11:39:36.814;704201975946341438;258488;278597;291097;-520;
2022-04-25T11:39:36.832;704201975964607986;258587;278706;291218;-541;
2022-04-25T11:39:36.850;704201975982874534;258637;278778;291301;-532;
2022-04-25T11:39:36.869;704201976001141082;258703;278972;291414;-514;
2022-04-25T11:39:36.887;704201976019407630;258801;279008;291510;-480;
2022-04-25T11:39:36.905;704201976037674178;258868;279021;291622;-485;
2022-04-25T11:39:36.924;704201976055940726;258945;279129;291711;-454;
2022-04-25T11:39:36.942;704201976074207274;259030;279148;291724;-518;
2022-04-25T11:39:36.960;704201976092473822;259039;279165;291737;-551;
2022-04-25T11:39:36.978;704201976110740370;259171;279241;291868;-519;
2022-04-25T11:39:36.997;704201976129006918;259221;279364;291963;-526;
2022-04-25T11:39:37.015;704201976147273466;259237;279369;292032;-502;
2022-04-25T11:39:37.033;704201976165540014;259391;279488;292101;-433;
2022-04-25T11:39:37.051;704201976183806562;259408;279513;292103;-553;
2022-04-25T11:39:37.070;704201976202073110;259501;279630;292210;-524;
2022-04-25T11:39:37.088;704201976220339658;259525;279581;292216;-564;
2022-04-25T11:39:37.106;704201976238606206;259654;279603;292350;-519;
2022-04-25T11:39:37.124;704201976256872754;259791;279689;292459;-512;
2022-04-25T11:39:37.143;704201976275139302;259801;279666;292432;-562;
2022-04-25T11:39:37.161;704201976293405850;259839;279599;292492;-608;
2022-04-25T11:39:37.179;704201976311672398;259970;279708;292635;-576;
2022-04-25T11:39:37.198;704201976329938946;259940;279612;292610;-617;
2022-04-25T11:39:37.216;704201976348205494;260056;279718;292745;-525;
2022-04-25T11:39:37.234;704201976366472042;260140;279748;292796;-623;
2022-04-25T11:39:37.252;704201976384738590;260189;279725;292881;-587;
2022-04-25T11:39:37.271;704201976403005138;260247;279727;292938;-639;
2022-04-25T11:39:37.289;704201976421271686;260436;279920;293026;-556;
2022-04-25T11:39:37.307;704201976439538234;260536;279933;293102;-573;
2022-04-25T11:39:37.325;704201976457804782;260529;279868;293159;-605;
2022-04-25T11:39:37.344;704201976476071330;260444;279785;293095;-607;
2022-04-25T11:39:37.362;704201976494337878;260307;279626;292944;-615;
2022-04-25T11:39:37.380;704201976512604426;260176;279405;292748;-568;
2022-04-25T11:39:37.398;704201976530870974;260010;279202;292605;-580;
2022-04-25T11:39:37.417;704201976549137522;259818;278937;292420;-592;
2022-04-25T11:39:37.435;704201976567404070;259547;278686;292138;-620;
2022-04-25T11:39:37.453;704201976585670618;259356;278466;291969;-661;
2022-04-25T11:39:37.472;704201976603937166;259052;278155;291696;-691;
2022-04-25T11:39:37.490;704201976622203714;258872;277950;291518;-682;
2022-04-25T11:39:37.508;704201976640470262;258651;277701;291317;-660;
2022-04-25T11:39:37.526;704201976658736810;258483;277424;291199;-643;
2022-04-25T11:39:37.545;704201976677003358;258265;277205;290941;-655;
2022-04-25T11:39:37.563;704201976695270212;258186;277095;290767;-612;
2022-04-25T11:39:37.581;704201976713537066;258014;276832;290599;-658;
2022-04-25T11:39:37.599;704201976731803920;257865;276660;290454;-612;
2022-04-25T11:39:37.618;704201976750070774;257766;276569;290433;-614;
2022-04-25T11:39:37.636;704201976768337628;257652;276431;290257;-653;
2022-04-25T11:39:37.654;704201976786604482;257619;276290;290195;-641;
2022-04-25T11:39:37.672;704201976804871336;257613;276171;290188;-624;
2022-04-25T11:39:37.691;704201976823138190;257575;276089;290194;-611;
2022-04-25T11:39:37.709;704201976841405044;257538;275994;290142;-660;
2022-04-25T11:39:37.727;704201976859671898;257436;275877;290124;-644;
2022-04-25T11:39:37.746;704201976877938752;257378;275835;290022;-609;
2022-04-25T11:39:37.764;704201976896205606;257444;275785;289964;-642;
2022-04-25T11:39:37.782;704201976914472460;257341;275666;289934;-631;
2022-04-25T11:39:37.800;704201976932739314;257337;275670;289871;-636;
2022-04-25T11:39:37.819;704201976951006168;257298;275607;289862;-615;
2022-04-25T11:39:37.837;704201976969273022;257330;275579;289814;-612;
2022-04-25T11:39:37.855;704201976987539876;257275;275480;289793;-618;
2022-04-25T11:39:37.873;704201977005806730;257268;275441;289829;-648;
2022-04-25T11:39:37.892;704201977024073584;257238;275354;289833;-630;
2022-04-25T11:39:37.910;704201977042340438;257277;275412;289840;-681;
2022-04-25T11:39:37.928;704201977060607292;257316;275369;289870;-628;
2022-04-25T11:39:37.946;704201977078874146;257373;275448;289930;-618;
2022-04-25T11:39:37.965;704201977097141000;257292;275363;289880;-624;
2022-04-25T11:39:37.983;704201977115407854;257379;275373;289947;-613;
2022-04-25T11:39:38.001;704201977133674708;257376;275380;290073;-695;
2022-04-25T11:39:38.020;704201977151941562;257470;275409;290088;-630;
2022-04-25T11:39:38.038;704201977170208416;257560;275452;290156;-625;
2022-04-25T11:39:38.056;704201977188475270;257596;275430;290168;-649;
2022-04-25T11:39:38.074;704201977206742124;257627;275517;290251;-623;
2022-04-25T11:39:38.093;704201977225008978;257643;275532;290288;-638;
2022-04-25T11:39:38.111;704201977243275832;257703;275582;290384;-631;
2022-04-25T11:39:38.129;704201977261542686;257737;275613;290444;-644;
2022-04-25T11:39:38.147;704201977279809540;257822;275700;290499;-622;
2022-04-25T11:39:38.166;704201977298076394;257894;275758;290535;-651;
2022-04-25T11:39:38.184;704201977316343248;257970;275759;290625;-609;
2022-04-25T11:39:38.202;704201977334610102;257989;275794;290680;-612;
2022-04-25T11:39:38.220;704201977352876956;258072;275761;290688;-676;
2022-04-25T11:39:38.239;704201977371143810;258187;275878;290867;-590;
2022-04-25T11:39:38.257;704201977389410664;258296;276024;291005;-584;
2022-04-25T11:39:38.275;704201977407677518;258316;275942;290967;-656;
2022-04-25T11:39:38.294;704201977425944372;258401;276017;291123;-662;
2022-04-25T11:39:38.312;704201977444211226;258447;276092;291197;-702;
2022-04-25T11:39:38.330;704201977462478080;258557;276276;291293;-644;
2022-04-25T11:39:38.348;704201977480744934;258654;276291;291412;-639;
2022-04-25T11:39:38.367;704201977499011788;258758;276315;291513;-668;
2022-04-25T11:39:38.385;704201977517277954;258827;276423;291632;-645;
2022-04-25T11:39:38.403;704201977535544103;258858;276474;291654;-641;
2022-04-25T11:39:38.421;704201977553810252;258996;276569;291834;-665;
2022-04-25T11:39:38.440;704201977572076401;259038;276705;291860;-664;
2022-04-25T11:39:38.458;704201977590342550;259185;276763;292066;-611;
2022-04-25T11:39:38.476;704201977608608699;259292;276805;292136;-619;
2022-04-25T11:39:38.494;704201977626874848;259344;276914;292207;-655;
2022-04-25T11:39:38.513;704201977645140997;259482;276950;292352;-641;
2022-04-25T11:39:38.531;704201977663407146;259513;277089;292445;-656;
2022-04-25T11:39:38.549;704201977681673295;259666;277120;292551;-695;
2022-04-25T11:39:38.568;704201977699939444;259773;277229;292704;-711;
2022-04-25T11:39:38.586;704201977718205593;259863;277284;292819;-673;
2022-04-25T11:39:38.604;704201977736471742;259881;277302;292850;-679;
2022-04-25T11:39:38.622;704201977754737891;259906;277390;292840;-652;
2022-04-25T11:39:38.641;704201977773004040;259921;277360;292871;-657;
2022-04-25T11:39:38.659;704201977791270189;259830;277268;292777;-646;
2022-04-25T11:39:38.677;704201977809536338;259681;277115;292673;-663;
2022-04-25T11:39:38.695;704201977827802487;259578;277017;292649;-618;
2022-04-25T11:39:38.714;704201977846068636;259430;276930;292595;-651;
2022-04-25T11:39:38.732;704201977864334785;259313;276813;292493;-614;
2022-04-25T11:39:38.750;704201977882600934;259205;276625;292331;-658;
2022-04-25T11:39:38.768;704201977900867083;259049;276483;292199;-685;
2022-04-25T11:39:38.787;704201977919133232;259022;276429;292115;-672;
2022-04-25T11:39:38.805;704201977937399381;258831;276339;292086;-674;
2022-04-25T11:39:38.823;704201977955665530;258696;276196;291933;-637;
2022-04-25T11:39:38.842;704201977973931679;258634;276153;291868;-674;
2022-04-25T11:39:38.860;704201977992197828;258534;276066;291755;-686;
2022-04-25T11:39:38.878;704201978010463977;258445;275936;291727;-689;
2022-04-25T11:39:38.896;704201978028730126;258467;275896;291708;-675;
2022-04-25T11:39:38.915;704201978046996275;258386;275903;291731;-675;
2022-04-25T11:39:38.933;704201978065262424;258504;275864;291779;-638;
2022-04-25T11:39:38.951;704201978083528573;258375;275874;291793;-689;
2022-04-25T11:39:38.969;704201978101794722;258403;275856;291769;-727;
2022-04-25T11:39:38.988;704201978120060871;258451;275870;291845;-681;
2022-04-25T11:39:39.006;704201978138327020;258408;275867;291834;-676;
2022-04-25T11:39:39.024;704201978156593169;258436;275858;291800;-687;
2022-04-25T11:39:39.042;704201978174859318;258408;275761;291843;-741;
2022-04-25T11:39:39.061;704201978193125467;258473;275884;291856;-710;
2022-04-25T11:39:39.079;704201978211391616;258424;275863;291827;-760;
2022-04-25T11:39:39.097;704201978229657765;258458;275904;291867;-687;
2022-04-25T11:39:39.116;704201978247923914;258473;275925;291939;-672;
2022-04-25T11:39:39.134;704201978266190063;258524;276000;292055;-676;
2022-04-25T11:39:39.152;704201978284457449;258514;275996;292026;-670;
2022-04-25T11:39:39.170;704201978302724796;258519;276008;292082;-683;
2022-04-25T11:39:39.189;704201978320992143;258597;276089;292145;-692;
2022-04-25T11:39:39.207;704201978339259490;258652;276096;292188;-727;
2022-04-25T11:39:39.225;704201978357526837;258616;276035;292221;-733;
2022-04-25T11:39:39.243;704201978375794184;258777;276152;292332;-639;
2022-04-25T11:39:39.262;704201978394061531;258821;276196;292420;-681;
2022-04-25T11:39:39.280;704201978412328878;258894;276216;292408;-637;
2022-04-25T11:39:39.298;704201978430596225;258875;276301;292507;-703;
2022-04-25T11:39:39.316;704201978448863572;258988;276313;292512;-746;
2022-04-25T11:39:39.335;704201978467130919;259051;276408;292642;-710;
2022-04-25T11:39:39.353;704201978485398266;259107;276480;292709;-680;
2022-04-25T11:39:39.371;704201978503665613;259096;276542;292771;-741;
2022-04-25T11:39:39.390;704201978521932960;259163;276551;292782;-724;
2022-04-25T11:39:39.408;704201978540200307;259317;276689;293006;-626;
2022-04-25T11:39:39.426;704201978558467654;259340;276706;293005;-698;
2022-04-25T11:39:39.444;704201978576735001;259466;276836;293110;-647;
2022-04-25T11:39:39.463;704201978595002348;259567;276875;293222;-649;
2022-04-25T11:39:39.481;704201978613269695;259572;276904;293288;-748;
2022-04-25T11:39:39.499;704201978631537042;259698;276998;293355;-678;
2022-04-25T11:39:39.517;704201978649804389;259723;277082;293392;-695;
2022-04-25T11:39:39.536;704201978668071736;259881;277163;293578;-702;
2022-04-25T11:39:39.554;704201978686339083;259924;277195;293640;-679;
2022-04-25T11:39:39.572;704201978704606430;259978;277289;293743;-674;
2022-04-25T11:39:39.590;704201978722873777;260076;277376;293805;-734;
2022-04-25T11:39:39.609;704201978741141124;260127;277445;293946;-692;
2022-04-25T11:39:39.627;704201978759408471;260251;277574;294045;-714;
2022-04-25T11:39:39.645;704201978777675818;260350;277648;294167;-666;
2022-04-25T11:39:39.664;704201978795943165;260470;277710;294278;-697;
2022-04-25T11:39:39.682;704201978814210512;260530;277817;294370;-685;
2022-04-25T11:39:39.700;704201978832477859;260680;277921;294451;-726;
2022-04-25T11:39:39.718;704201978850745206;260779;278050;294527;-742;
2022-04-25T11:39:39.737;704201978869012553;260855;278099;294661;-687;
2022-04-25T11:39:39.755;704201978887279900;260921;278183;294771;-659;
2022-04-25T11:39:39.773;704201978905547247;261053;278310;294900;-659;
2022-04-25T11:39:39.791;704201978923814594;261113;278437;294980;-720;
2022-04-25T11:39:39.810;704201978942081941;261134;278447;294990;-732;
2022-04-25T11:39:39.828;704201978960349288;261127;278511;295029;-678;
2022-04-25T11:39:39.846;704201978978616635;261040;278394;295010;-637;
2022-04-25T11:39:39.865;704201978996883982;260984;278291;294985;-636;
2022-04-25T11:39:39.883;704201979015151329;260936;278164;294893;-656;
2022-04-25T11:39:39.901;704201979033418676;260835;278159;294832;-668;
2022-04-25T11:39:39.919;704201979051685260;260767;278118;294695;-688;
2022-04-25T11:39:39.938;704201979069951808;260647;278003;294648;-644;
2022-04-25T11:39:39.956;704201979088218356;260535;277924;294603;-670;
2022-04-25T11:39:39.974;704201979106484904;260477;277849;294563;-596;
2022-04-25T11:39:39.992;704201979124751452;260361;277766;294486;-642;
2022-04-25T11:39:40.011;704201979143018000;260307;277694;294399;-672;
2022-04-25T11:39:40.029;704201979161284548;260215;277604;294362;-703;
2022-04-25T11:39:40.047;704201979179551096;260235;277560;294364;-690;
2022-04-25T11:39:40.065;704201979197817644;260177;277534;294279;-672;
2022-04-25T11:39:40.084;704201979216084192;260182;277526;294300;-723;
2022-04-25T11:39:40.102;704201979234350740;260143;277578;294335;-727;
2022-04-25T11:39:40.120;704201979252617288;260190;277585;294341;-700;
2022-04-25T11:39:40.139;704201979270883836;260162;277547;294302;-755;
2022-04-25T11:39:40.157;704201979289150384;260194;277597;294373;-725;
2022-04-25T11:39:40.175;704201979307416932;260187;277566;294414;-712;
2022-04-25T11:39:40.193;704201979325683480;260259;277581;294418;-673;
2022-04-25T11:39:40.212;704201979343950028;260292;277652;294449;-737;
2022-04-25T11:39:40.230;704201979362216576;260283;277690;294573;-703;
2022-04-25T11:39:40.248;704201979380483124;260263;277697;294596;-715;
2022-04-25T11:39:40.266;704201979398749672;260343;277743;294586;-671;
2022-04-25T11:39:40.285;704201979417016220;260373;277773;294606;-674;
2022-04-25T11:39:40.303;704201979435282768;260385;277817;294629;-725;
2022-04-25T11:39:40.321;704201979453549316;260433;277834;294654;-754;
2022-04-25T11:39:40.339;704201979471815864;260499;277955;294749;-713;
2022-04-25T11:39:40.358;704201979490082412;260539;278020;294777;-657;
2022-04-25T11:39:40.376;704201979508348960;260546;278028;294814;-658;
2022-04-25T11:39:40.394;704201979526615508;260591;278103;294879;-665;
2022-04-25T11:39:40.413;704201979544882056;260669;278104;294982;-626;
2022-04-25T11:39:40.431;704201979563148604;260733;278197;294970;-629;
2022-04-25T11:39:40.449;704201979581415152;260790;278215;295121;-680;
2022-04-25T11:39:40.467;704201979599681700;260814;278296;295109;-659;
2022-04-25T11:39:40.486;704201979617948248;260913;278389;295206;-619;
2022-04-25T11:39:40.504;704201979636214796;260912;278396;295205;-662;
2022-04-25T11:39:40.522;704201979654481344;260984;278439;295309;-663;
2022-04-25T11:39:40.540;704201979672747892;261122;278562;295361;-652;
2022-04-25T11:39:40.559;704201979691014440;261168;278609;295456;-653;
2022-04-25T11:39:40.577;704201979709280988;261262;278674;295543;-634;
2022-04-25T11:39:40.595;704201979727547536;261269;278661;295573;-661;
2022-04-25T11:39:40.613;704201979745814084;261353;278734;295653;-691;
2022-04-25T11:39:40.632;704201979764080632;261411;278890;295764;-611;
2022-04-25T11:39:40.650;704201979782347180;261433;278962;295797;-682;
2022-04-25T11:39:40.668;704201979800613728;261562;279036;295937;-639;
2022-04-25T11:39:40.687;704201979818880276;261580;279066;295945;-655;
2022-04-25T11:39:40.705;704201979837146824;261642;279117;296028;-635;
2022-04-25T11:39:40.723;704201979855413372;261747;279216;296065;-642;
2022-04-25T11:39:40.741;704201979873679920;261813;279228;296124;-671;
2022-04-25T11:39:40.760;704201979891946473;261830;279326;296200;-763;
2022-04-25T11:39:40.778;704201979910212985;261946;279454;296293;-670;
2022-04-25T11:39:40.796;704201979928479497;262094;279570;296468;-660;
2022-04-25T11:39:40.814;704201979946746009;262132;279679;296540;-644;
2022-04-25T11:39:40.833;704201979965012521;262212;279781;296641;-608;
2022-04-25T11:39:40.851;704201979983279033;262240;279760;296639;-722;
2022-04-25T11:39:40.869;704201980001545545;262290;279866;296745;-736;
2022-04-25T11:39:40.887;704201980019812057;262439;279967;296850;-651;
2022-04-25T11:39:40.906;704201980038078569;262532;280041;296950;-655;
2022-04-25T11:39:40.924;704201980056345081;262544;280088;297011;-709;
2022-04-25T11:39:40.942;704201980074611593;262664;280149;297096;-707;
2022-04-25T11:39:40.960;704201980092878105;262730;280221;297151;-744;
2022-04-25T11:39:40.979;704201980111144617;262833;280285;297286;-647;
2022-04-25T11:39:40.997;704201980129411129;262936;280436;297393;-668;
2022-04-25T11:39:41.015;704201980147677641;263004;280549;297505;-693;
2022-04-25T11:39:41.034;704201980165944153;262970;280538;297504;-719;
2022-04-25T11:39:41.052;704201980184210665;263007;280646;297533;-665;
2022-04-25T11:39:41.070;704201980202477177;262962;280541;297522;-682;
2022-04-25T11:39:41.088;704201980220743689;262956;280526;297553;-659;
2022-04-25T11:39:41.107;704201980239010201;262905;280420;297457;-646;
2022-04-25T11:39:41.125;704201980257276713;262768;280283;297304;-679;
2022-04-25T11:39:41.143;704201980275543225;262635;280139;297223;-703;
2022-04-25T11:39:41.161;704201980293809737;262568;280063;297138;-720;
2022-04-25T11:39:41.180;704201980312076249;262400;279922;296992;-728;
2022-04-25T11:39:41.198;704201980330342761;262275;279844;296963;-678;
2022-04-25T11:39:41.216;704201980348609273;262160;279774;296885;-693;
2022-04-25T11:39:41.234;704201980366875785;262083;279673;296738;-692;
2022-04-25T11:39:41.253;704201980385142297;261999;279572;296645;-703;
2022-04-25T11:39:41.271;704201980403408809;261918;279513;296568;-725;
2022-04-25T11:39:41.289;704201980421675321;261779;279415;296505;-748;
2022-04-25T11:39:41.308;704201980439941833;261730;279417;296467;-766;
2022-04-25T11:39:41.326;704201980458208345;261739;279394;296444;-670;
2022-04-25T11:39:41.344;704201980476474857;261685;279342;296412;-697;
2022-04-25T11:39:41.362;704201980494741369;261639;279288;296350;-668;
2022-04-25T11:39:41.381;704201980513007881;261625;279337;296364;-723;
2022-04-25T11:39:41.399;704201980531274393;261620;279318;296375;-716;
2022-04-25T11:39:41.417;704201980549540905;261595;279262;296339;-783;
2022-04-25T11:39:41.435;704201980567807417;261537;279196;296342;-765;
2022-04-25T11:39:41.454;704201980586073929;261568;279222;296324;-673;
2022-04-25T11:39:41.472;704201980604340441;261516;279251;296247;-744;
2022-04-25T11:39:41.490;704201980622606953;261494;279217;296259;-720;
2022-04-25T11:39:41.508;704201980640873465;261486;279193;296269;-725;
2022-04-25T11:39:41.527;704201980659139346;261512;279238;296273;-722;
2022-04-25T11:39:41.545;704201980677405204;261477;279261;296347;-698;
2022-04-25T11:39:41.563;704201980695671062;261505;279202;296280;-713;
2022-04-25T11:39:41.582;704201980713936920;261593;279240;296309;-700;
2022-04-25T11:39:41.600;704201980732202778;261555;279317;296295;-740;
2022-04-25T11:39:41.618;704201980750468636;261539;279261;296308;-770;
2022-04-25T11:39:41.636;704201980768734494;261559;279404;296381;-706;
2022-04-25T11:39:41.655;704201980787000352;261678;279435;296427;-678;
2022-04-25T11:39:41.673;704201980805266210;261658;279350;296417;-681;
2022-04-25T11:39:41.691;704201980823532068;261747;279424;296423;-727;
2022-04-25T11:39:41.709;704201980841797926;261675;279475;296468;-690;
2022-04-25T11:39:41.728;704201980860063784;261744;279506;296498;-710;
2022-04-25T11:39:41.746;704201980878329642;261781;279557;296575;-636;
2022-04-25T11:39:41.764;704201980896595500;261810;279573;296615;-700;
2022-04-25T11:39:41.782;704201980914861358;261915;279638;296682;-729;
2022-04-25T11:39:41.801;704201980933127216;261898;279631;296611;-732;
2022-04-25T11:39:41.819;704201980951393074;261954;279669;296695;-717;
2022-04-25T11:39:41.837;704201980969658932;261992;279697;296653;-766;
2022-04-25T11:39:41.856;704201980987924790;262097;279764;296779;-738;
2022-04-25T11:39:41.874;704201981006190648;262101;279795;296724;-796;
2022-04-25T11:39:41.892;704201981024456506;262209;279830;296843;-730;
2022-04-25T11:39:41.910;704201981042722364;262261;279911;296862;-751;
2022-04-25T11:39:41.929;704201981060988222;262361;279934;296895;-728;
2022-04-25T11:39:41.947;704201981079254080;262410;279927;296944;-728;
2022-04-25T11:39:41.965;704201981097519938;262532;280047;297085;-695;
2022-04-25T11:39:41.983;704201981115785796;262552;280141;297064;-755;
2022-04-25T11:39:42.002;704201981134051654;262605;280160;297141;-747;
2022-04-25T11:39:42.020;704201981152317512;262630;280247;297163;-726;
2022-04-25T11:39:42.038;704201981170583370;262756;280268;297225;-690;
2022-04-25T11:39:42.056;704201981188849228;262839;280311;297323;-706;
2022-04-25T11:39:42.075;704201981207115086;262904;280417;297385;-693;
2022-04-25T11:39:42.093;704201981225380944;262954;280441;297407;-758;
2022-04-25T11:39:42.111;704201981243646802;263013;280544;297450;-690;
2022-04-25T11:39:42.130;704201981261912660;263118;280605;297511;-734;
2022-04-25T11:39:42.148;704201981280178518;263214;280703;297618;-699;
2022-04-25T11:39:42.166;704201981298444376;263310;280766;297699;-707;
2022-04-25T11:39:42.184;704201981316710234;263334;280750;297707;-799;
2022-04-25T11:39:42.203;704201981334976092;263377;280803;297765;-705;
2022-04-25T11:39:42.221;704201981353241950;263417;280856;297834;-771;
2022-04-25T11:39:42.239;704201981371507808;263485;280941;297877;-777;
2022-04-25T11:39:42.257;704201981389773666;263577;281023;297982;-779;
2022-04-25T11:39:42.276;704201981408039524;263649;281095;298043;-740;
2022-04-25T11:39:42.294;704201981426306108;263711;281079;298060;-751;
2022-04-25T11:39:42.312;704201981444572656;263668;281061;298023;-674;
2022-04-25T11:39:42.330;704201981462839204;263590;281012;297934;-727;
2022-04-25T11:39:42.349;704201981481105752;263467;280952;297862;-702;
2022-04-25T11:39:42.367;704201981499372300;263266;280716;297702;-771;
2022-04-25T11:39:42.385;704201981517638848;263116;280652;297526;-817;
2022-04-25T11:39:42.404;704201981535905396;262996;280531;297427;-784;
2022-04-25T11:39:42.422;704201981554171944;262851;280439;297280;-730;
2022-04-25T11:39:42.440;704201981572438492;262690;280248;297060;-770;
2022-04-25T11:39:42.458;704201981590705040;262533;280102;296904;-759;
2022-04-25T11:39:42.477;704201981608971588;262447;279972;296809;-777;
2022-04-25T11:39:42.495;704201981627238136;262303;279869;296691;-772;
2022-04-25T11:39:42.513;704201981645504684;262185;279767;296475;-771;
2022-04-25T11:39:42.531;704201981663771232;262102;279664;296390;-658;
2022-04-25T11:39:42.550;704201981682037780;262069;279479;296279;-714;
2022-04-25T11:39:42.568;704201981700304328;261991;279422;296137;-744;
2022-04-25T11:39:42.586;704201981718570876;262122;279308;296063;-702;
2022-04-25T11:39:42.604;704201981736837424;262014;279306;295984;-750;
2022-04-25T11:39:42.623;704201981755103972;261987;279272;295938;-750;
2022-04-25T11:39:42.641;704201981773370520;261948;279318;295853;-770;
2022-04-25T11:39:42.659;704201981791637068;261880;279342;295769;-863;
2022-04-25T11:39:42.678;704201981809903616;261831;279328;295748;-818;
2022-04-25T11:39:42.696;704201981828170164;261804;279373;295682;-868;
2022-04-25T11:39:42.714;704201981846436712;261623;279275;295520;-896;
2022-04-25T11:39:42.732;704201981864703260;261508;279359;295548;-894;
2022-04-25T11:39:42.751;704201981882969808;261341;279322;295427;-942;
2022-04-25T11:39:42.769;704201981901236356;261248;279309;295411;-942;
2022-04-25T11:39:42.787;704201981919502904;261172;279268;295357;-1034;
2022-04-25T11:39:42.805;704201981937769452;261228;279298;295358;-1011;
2022-04-25T11:39:42.824;704201981956036000;261199;279318;295303;-1051;
2022-04-25T11:39:42.842;704201981974302548;261107;279309;295321;-1115;
2022-04-25T11:39:42.860;704201981992569096;261115;279407;295229;-1134;
2022-04-25T11:39:42.878;704201982010835644;261092;279470;295246;-1118;
2022-04-25T11:39:42.897;704201982029102192;261056;279504;295244;-1152;
2022-04-25T11:39:42.915;704201982047368740;261087;279504;295303;-1164;
2022-04-25T11:39:42.933;704201982065635288;261084;279554;295313;-1199;
2022-04-25T11:39:42.952;704201982083901836;261141;279537;295386;-1191;
2022-04-25T11:39:42.970;704201982102168384;261168;279633;295495;-1246;
2022-04-25T11:39:42.988;704201982120434932;261313;279729;295619;-1151;
2022-04-25T11:39:43.006;704201982138701480;261313;279692;295584;-1229;
2022-04-25T11:39:43.025;704201982156968028;261443;279745;295716;-1184;
2022-04-25T11:39:43.043;704201982175234576;261559;279707;295741;-1221;
2022-04-25T11:39:43.061;704201982193500899;261609;279739;295817;-1229;
2022-04-25T11:39:43.079;704201982211767193;261738;279836;295897;-1186;
2022-04-25T11:39:43.098;704201982230033487;261782;279814;295942;-1202;
2022-04-25T11:39:43.116;704201982248299781;261899;279882;296044;-1148;
2022-04-25T11:39:43.134;704201982266566075;262008;279901;296133;-1206;
2022-04-25T11:39:43.152;704201982284832369;262165;279962;296233;-1181;
2022-04-25T11:39:43.171;704201982303098663;262298;280027;296313;-1109;
2022-04-25T11:39:43.189;704201982321364957;262445;279980;296395;-1104;
2022-04-25T11:39:43.207;704201982339631251;262608;280126;296492;-1069;
2022-04-25T11:39:43.226;704201982357897545;262757;280204;296580;-978;
2022-04-25T11:39:43.244;704201982376163839;262878;280202;296640;-983;
2022-04-25T11:39:43.262;704201982394430133;263016;280343;296820;-921;
2022-04-25T11:39:43.280;704201982412696427;263198;280457;296891;-864;
2022-04-25T11:39:43.299;704201982430962721;263368;280542;297013;-833;
2022-04-25T11:39:43.317;704201982449229015;263514;280675;297130;-755;
2022-04-25T11:39:43.335;704201982467495309;263673;280769;297232;-719;
2022-04-25T11:39:43.353;704201982485761603;263758;280875;297384;-704;
2022-04-25T11:39:43.372;704201982504027897;263925;280954;297512;-646;
2022-04-25T11:39:43.390;704201982522294191;264062;281023;297596;-622;
2022-04-25T11:39:43.408;704201982540560485;264281;281152;297737;-517;
2022-04-25T11:39:43.426;704201982558826779;264366;281231;297857;-493;
2022-04-25T11:39:43.445;704201982577093073;264463;281264;297983;-446;
2022-04-25T11:39:43.463;704201982595359367;264606;281417;298018;-430;
2022-04-25T11:39:43.481;704201982613625661;264637;281490;298110;-393;
2022-04-25T11:39:43.500;704201982631891955;264756;281546;298201;-389;
2022-04-25T11:39:43.518;704201982650158249;264733;281545;298204;-340;
2022-04-25T11:39:43.536;704201982668424543;264716;281528;298142;-290;
2022-04-25T11:39:43.554;704201982686690837;264733;281438;298067;-261;
2022-04-25T11:39:43.573;704201982704957131;264546;281271;297945;-282;
2022-04-25T11:39:43.591;704201982723223425;264359;281248;297796;-307;
2022-04-25T11:39:43.609;704201982741489719;264236;281098;297664;-263;
2022-04-25T11:39:43.627;704201982759756013;264121;281021;297520;-152;
2022-04-25T11:39:43.646;704201982778022307;264018;280922;297367;-142;
2022-04-25T11:39:43.664;704201982796288601;263867;280734;297241;-161;
2022-04-25T11:39:43.682;704201982814554895;263689;280629;297060;-162;
2022-04-25T11:39:43.700;704201982832821189;263599;280553;296973;-112;
2022-04-25T11:39:43.719;704201982851087483;263464;280386;296816;-118;
2022-04-25T11:39:43.737;704201982869353777;263366;280334;296702;-158;
2022-04-25T11:39:43.755;704201982887620071;263280;280268;296588;-177;
2022-04-25T11:39:43.774;704201982905886365;263261;280223;296490;-133;
2022-04-25T11:39:43.792;704201982924152659;263220;280107;296420;-67;
2022-04-25T11:39:43.810;704201982942418953;263108;280023;296326;-100;
2022-04-25T11:39:43.828;704201982960685054;263133;280035;296352;-92;
2022-04-25T11:39:43.847;704201982978951118;263098;280014;296333;-111;
2022-04-25T11:39:43.865;704201982997217182;262942;279945;296202;-98;
2022-04-25T11:39:43.883;704201983015483246;262911;279954;296180;-52;
2022-04-25T11:39:43.901;704201983033749310;262839;279888;296045;-96;
2022-04-25T11:39:43.920;704201983052015374;262893;279914;296015;-88;
2022-04-25T11:39:43.938;704201983070281438;262804;279826;295950;-131;
2022-04-25T11:39:43.956;704201983088547502;262753;279775;295954;-93;
2022-04-25T11:39:43.974;704201983106813566;262770;279798;295935;-110;
2022-04-25T11:39:43.993;704201983125079630;262720;279692;295892;-42;
2022-04-25T11:39:44.011;704201983143345694;262722;279648;295841;-82;
2022-04-25T11:39:44.029;704201983161611758;262641;279606;295821;-97;
2022-04-25T11:39:44.047;704201983179877822;262542;279557;295735;-117;
2022-04-25T11:39:44.066;704201983198143886;262582;279559;295766;-119;
2022-04-25T11:39:44.084;704201983216409950;262580;279573;295775;-123;
2022-04-25T11:39:44.102;704201983234676014;262603;279583;295773;-83;
2022-04-25T11:39:44.121;704201983252942078;262576;279596;295830;-168;
2022-04-25T11:39:44.139;704201983271208142;262584;279592;295785;-238;
2022-04-25T11:39:44.157;704201983289474206;262645;279610;295891;-224;
2022-04-25T11:39:44.175;704201983307740270;262655;279695;295892;-283;
2022-04-25T11:39:44.194;704201983326006334;262674;279758;295947;-252;
2022-04-25T11:39:44.212;704201983344272398;262648;279764;296012;-310;
2022-04-25T11:39:44.230;704201983362538462;262611;279822;296040;-345;
2022-04-25T11:39:44.248;704201983380804526;262698;279899;296127;-299;
2022-04-25T11:39:44.267;704201983399070590;262714;279965;296257;-331;
2022-04-25T11:39:44.285;704201983417336654;262671;279966;296194;-474;
2022-04-25T11:39:44.303;704201983435602718;262756;280071;296368;-427;
2022-04-25T11:39:44.321;704201983453868782;262759;280166;296448;-541;
2022-04-25T11:39:44.340;704201983472134846;262866;280282;296577;-489;
2022-04-25T11:39:44.358;704201983490400910;263014;280512;296758;-515;
2022-04-25T11:39:44.376;704201983508666974;263178;280698;296876;-630;
2022-04-25T11:39:44.395;704201983526933038;263395;280960;297008;-600;
2022-04-25T11:39:44.413;704201983545199102;263696;281272;297255;-670;
2022-04-25T11:39:44.431;704201983563465166;263928;281745;297416;-642;
2022-04-25T11:39:44.449;704201983581731230;264154;282152;297496;-607;
2022-04-25T11:39:44.468;704201983599997294;264413;282577;297555;-647;
2022-04-25T11:39:44.486;704201983618263358;264823;283145;297777;-618;
2022-04-25T11:39:44.504;704201983636529422;265204;283732;298006;-627;
2022-04-25T11:39:44.522;704201983654795486;265552;284219;298176;-613;
2022-04-25T11:39:44.541;704201983673061550;265959;284970;298471;-613;
2022-04-25T11:39:44.559;704201983691327614;266430;285671;298782;-577;
2022-04-25T11:39:44.577;704201983709592424;266868;286414;299218;-550;
2022-04-25T11:39:44.595;704201983727857229;267311;287100;299634;-574;
2022-04-25T11:39:44.614;704201983746122034;267797;287700;300040;-529;
2022-04-25T11:39:44.632;704201983764386839;268149;288217;300476;-532;
2022-04-25T11:39:44.650;704201983782651644;268531;288669;300875;-533;
2022-04-25T11:39:44.669;704201983800916449;268905;289221;301309;-472;
2022-04-25T11:39:44.687;704201983819181254;269195;289582;301587;-474;
2022-04-25T11:39:44.705;704201983837446059;269459;289964;301911;-426;
2022-04-25T11:39:44.723;704201983855710864;269849;290346;302216;-482;
2022-04-25T11:39:44.742;704201983873975669;270302;290831;302557;-443;
2022-04-25T11:39:44.760;704201983892240474;270782;291408;302835;-399;
2022-04-25T11:39:44.778;704201983910505279;271188;291942;303213;-351;
2022-04-25T11:39:44.796;704201983928770084;271607;292417;303593;-356;
2022-04-25T11:39:44.815;704201983947034889;272069;292836;303944;-314;
2022-04-25T11:39:44.833;704201983965299694;272430;293222;304256;-336;
2022-04-25T11:39:44.851;704201983983564499;272740;293617;304585;-351;
2022-04-25T11:39:44.869;704201984001829304;273124;294001;304975;-323;
2022-04-25T11:39:44.888;704201984020094109;273444;294427;305296;-381;
2022-04-25T11:39:44.906;704201984038358914;273845;294861;305601;-364;
2022-04-25T11:39:44.924;704201984056623719;274351;295418;305957;-320;
2022-04-25T11:39:44.943;704201984074888524;274770;295887;306303;-311;
2022-04-25T11:39:44.961;704201984093153329;275181;296288;306580;-359;
2022-04-25T11:39:44.979;704201984111418134;275496;296624;306874;-314;
2022-04-25T11:39:44.997;704201984129682939;275862;297033;307201;-339;
2022-04-25T11:39:45.016;704201984147947744;276179;297326;307417;-320;
2022-04-25T11:39:45.034;704201984166212549;276615;297745;307764;-324;
2022-04-25T11:39:45.052;704201984184477354;276950;298181;308082;-268;
2022-04-25T11:39:45.070;704201984202742159;277289;298479;308342;-315;
2022-04-25T11:39:45.089;704201984221006964;277692;298936;308724;-239;
2022-04-25T11:39:45.107;704201984239271769;278067;299278;309036;-233;
2022-04-25T11:39:45.125;704201984257536574;278400;299587;309299;-322;
2022-04-25T11:39:45.143;704201984275801379;278733;299941;309583;-291;
2022-04-25T11:39:45.162;704201984294066184;279029;300331;309813;-261;
2022-04-25T11:39:45.180;704201984312330989;279350;300608;310134;-233;
2022-04-25T11:39:45.198;704201984330595794;279724;300937;310398;-245;
2022-04-25T11:39:45.216;704201984348862249;279991;301178;310644;-244;
2022-04-25T11:39:45.235;704201984367128683;280270;301457;310847;-237;
2022-04-25T11:39:45.253;704201984385395117;280653;301870;311189;-229;
2022-04-25T11:39:45.271;704201984403661551;280977;302254;311354;-216;
2022-04-25T11:39:45.290;704201984421927985;281312;302665;311625;-142;
2022-04-25T11:39:45.308;704201984440194419;281600;303048;311899;-254;
2022-04-25T11:39:45.326;704201984458460853;281930;303452;312184;-149;
2022-04-25T11:39:45.344;704201984476727287;282168;303741;312415;-171;
2022-04-25T11:39:45.363;704201984494993721;282302;303732;312399;-248;
2022-04-25T11:39:45.381;704201984513260155;282277;303559;312304;-266;
2022-04-25T11:39:45.399;704201984531526589;282053;303185;312027;-260;
2022-04-25T11:39:45.417;704201984549793023;281533;302703;311658;-233;
2022-04-25T11:39:45.436;704201984568059457;280944;302390;311326;-258;
2022-04-25T11:39:45.454;704201984586325891;280510;302025;311034;-302;
2022-04-25T11:39:45.472;704201984604592325;280163;301796;310784;-338;
2022-04-25T11:39:45.490;704201984622858759;279890;301590;310496;-349;
2022-04-25T11:39:45.509;704201984641125193;279703;301448;310364;-363;
2022-04-25T11:39:45.527;704201984659391627;279622;301330;310194;-432;
2022-04-25T11:39:45.545;704201984677658061;279573;301349;310145;-391;
2022-04-25T11:39:45.564;704201984695924495;279565;301348;310084;-319;
2022-04-25T11:39:45.582;704201984714190929;279547;301287;310027;-330;
2022-04-25T11:39:45.600;704201984732457363;279425;301260;309860;-432;
2022-04-25T11:39:45.618;704201984750723797;279358;301164;309801;-402;
2022-04-25T11:39:45.637;704201984768990231;279248;301155;309705;-417;
2022-04-25T11:39:45.655;704201984787256665;279171;301187;309667;-359;
2022-04-25T11:39:45.673;704201984805523099;279034;301110;309591;-438;
2022-04-25T11:39:45.691;704201984823789533;278961;301075;309582;-409;
2022-04-25T11:39:45.710;704201984842055967;278773;301078;309482;-434;
2022-04-25T11:39:45.728;704201984860322401;278683;301026;309409;-439;
2022-04-25T11:39:45.746;704201984878588835;278539;300960;309432;-458;
2022-04-25T11:39:45.764;704201984896855269;278439;300905;309347;-412;
2022-04-25T11:39:45.783;704201984915121703;278285;300732;309220;-417;
2022-04-25T11:39:45.801;704201984933388137;278045;300493;309065;-399;
2022-04-25T11:39:45.819;704201984951654571;277873;300386;309031;-436;
2022-04-25T11:39:45.838;704201984969921005;277713;300127;309040;-456;
2022-04-25T11:39:45.856;704201984988187439;277410;299863;308862;-500;
2022-04-25T11:39:45.874;704201985006453873;277138;299602;308711;-484;
2022-04-25T11:39:45.892;704201985024720307;276902;299385;308590;-476;
2022-04-25T11:39:45.911;704201985042986741;276641;299037;308440;-554;
2022-04-25T11:39:45.929;704201985061253175;276400;298825;308309;-537;
2022-04-25T11:39:45.947;704201985079518782;276184;298517;308161;-609;
2022-04-25T11:39:45.965;704201985097784349;276026;298312;308090;-566;
2022-04-25T11:39:45.984;704201985116049916;275801;298073;307978;-594;
2022-04-25T11:39:46.002;704201985134315483;275682;297909;307822;-602;
2022-04-25T11:39:46.020;704201985152581050;275591;297813;307781;-664;
2022-04-25T11:39:46.038;704201985170846617;275446;297648;307762;-620;
2022-04-25T11:39:46.057;704201985189112184;275391;297460;307711;-640;
2022-04-25T11:39:46.075;704201985207377751;275301;297447;307694;-621;
2022-04-25T11:39:46.093;704201985225643318;275221;297317;307730;-592;
2022-04-25T11:39:46.112;704201985243908885;275192;297233;307688;-584;
2022-04-25T11:39:46.130;704201985262174452;275157;297114;307657;-602;
2022-04-25T11:39:46.148;704201985280440019;275087;297083;307615;-597;
2022-04-25T11:39:46.166;704201985298705586;275104;297036;307613;-555;
2022-04-25T11:39:46.185;704201985316971153;275041;296947;307515;-637;
2022-04-25T11:39:46.203;704201985335236720;275053;296991;307510;-603;
2022-04-25T11:39:46.221;704201985353502287;274970;296943;307494;-694;
2022-04-25T11:39:46.239;704201985371767854;274959;296907;307494;-689;
2022-04-25T11:39:46.258;704201985390033421;274895;296706;307458;-711;
2022-04-25T11:39:46.276;704201985408298988;274811;296541;307441;-736;
2022-04-25T11:39:46.294;704201985426564555;274717;296424;307360;-767;
2022-04-25T11:39:46.312;704201985444830122;274630;296387;307304;-797;
2022-04-25T11:39:46.331;704201985463095689;274643;296271;307290;-758;
2022-04-25T11:39:46.349;704201985481361256;274601;296184;307274;-726;
2022-04-25T11:39:46.367;704201985499626823;274582;296145;307265;-776;
2022-04-25T11:39:46.386;704201985517892390;274502;296107;307236;-783;
2022-04-25T11:39:46.404;704201985536157957;274424;296043;307172;-811;
2022-04-25T11:39:46.422;704201985554423524;274439;296092;307203;-810;
2022-04-25T11:39:46.440;704201985572689091;274434;296063;307164;-814;
2022-04-25T11:39:46.459;704201985590954658;274397;296058;307205;-787;
2022-04-25T11:39:46.477;704201985609220225;274447;295967;307246;-705;
2022-04-25T11:39:46.495;704201985627485792;274426;295947;307146;-782;
2022-04-25T11:39:46.513;704201985645751359;274442;295886;307093;-725;
2022-04-25T11:39:46.532;704201985664016926;274491;295906;307105;-712;
2022-04-25T11:39:46.550;704201985682282493;274480;295840;307085;-682;
2022-04-25T11:39:46.568;704201985700548060;274412;295734;307060;-555;
2022-04-25T11:39:46.586;704201985718813627;274208;295679;306939;-577;
2022-04-25T11:39:46.605;704201985737079194;274008;295492;306746;-580;
2022-04-25T11:39:46.623;704201985755344761;273843;295290;306561;-525;
2022-04-25T11:39:46.641;704201985773610328;273575;295109;306369;-556;
2022-04-25T11:39:46.659;704201985791875895;273399;294875;306092;-487;
2022-04-25T11:39:46.678;704201985810141462;273113;294727;305823;-476;
2022-04-25T11:39:46.696;704201985828407029;272788;294517;305514;-458;
2022-04-25T11:39:46.714;704201985846673260;272512;294255;305194;-443;
2022-04-25T11:39:46.733;704201985864939453;272177;294044;304891;-494;
2022-04-25T11:39:46.751;704201985883205646;271816;293737;304576;-449;
2022-04-25T11:39:46.769;704201985901471839;271471;293428;304322;-420;
2022-04-25T11:39:46.787;704201985919738032;271148;293052;303970;-478;
2022-04-25T11:39:46.806;704201985938004225;270844;292673;303685;-438;
2022-04-25T11:39:46.824;704201985956270418;270569;292376;303461;-465;
2022-04-25T11:39:46.842;704201985974536611;270324;292077;303201;-474;
2022-04-25T11:39:46.860;704201985992802804;270058;291795;302989;-474;
2022-04-25T11:39:46.879;704201986011068997;269805;291447;302740;-451;
2022-04-25T11:39:46.897;704201986029335190;269573;291248;302588;-491;
2022-04-25T11:39:46.915;704201986047601383;269278;290991;302391;-492;
2022-04-25T11:39:46.933;704201986065867576;269054;290699;302171;-529;
2022-04-25T11:39:46.952;704201986084133769;268878;290432;301997;-521;
2022-04-25T11:39:46.970;704201986102399962;268612;290110;301805;-555;
2022-04-25T11:39:46.988;704201986120666155;268384;289859;301631;-608;
2022-04-25T11:39:47.007;704201986138932348;268166;289577;301416;-697;
2022-04-25T11:39:47.025;704201986157198541;268014;289339;301303;-628;
2022-04-25T11:39:47.043;704201986175464734;267834;289119;301122;-681;
2022-04-25T11:39:47.061;704201986193730927;267742;289002;301119;-612;
2022-04-25T11:39:47.080;704201986211997120;267568;288841;300906;-705;
2022-04-25T11:39:47.098;704201986230263313;267463;288681;300832;-719;
2022-04-25T11:39:47.116;704201986248529506;267435;288588;300798;-628;
2022-04-25T11:39:47.134;704201986266795699;267313;288428;300668;-642;
2022-04-25T11:39:47.153;704201986285061892;267203;288333;300601;-663;
2022-04-25T11:39:47.171;704201986303328085;267114;288228;300522;-649;
2022-04-25T11:39:47.189;704201986321594278;267058;288207;300512;-644;
2022-04-25T11:39:47.207;704201986339860471;266966;288110;300437;-621;
2022-04-25T11:39:47.226;704201986358126664;266897;287961;300321;-621;
2022-04-25T11:39:47.244;704201986376392857;266848;287880;300259;-640;
2022-04-25T11:39:47.262;704201986394659050;266867;287882;300321;-580;
2022-04-25T11:39:47.281;704201986412925243;266828;287733;300207;-629;
2022-04-25T11:39:47.299;704201986431191436;266778;287694;300181;-640;
2022-04-25T11:39:47.317;704201986449457629;266739;287718;300217;-578;
2022-04-25T11:39:47.335;704201986467723822;266689;287667;300176;-651;
2022-04-25T11:39:47.354;704201986485990015;266738;287647;300239;-638;
2022-04-25T11:39:47.372;704201986504256208;266743;287665;300191;-575;
2022-04-25T11:39:47.390;704201986522522401;266785;287645;300184;-592;
2022-04-25T11:39:47.408;704201986540788594;266717;287525;300160;-610;
2022-04-25T11:39:47.427;704201986559054787;266767;287552;300131;-615;
2022-04-25T11:39:47.445;704201986577320980;266743;287537;300170;-614;
2022-04-25T11:39:47.463;704201986595587173;266735;287531;300202;-568;
2022-04-25T11:39:47.481;704201986613853366;266707;287454;300168;-614;
2022-04-25T11:39:47.500;704201986632119480;266832;287490;300210;-576;
2022-04-25T11:39:47.518;704201986650385564;266753;287465;300182;-566;
2022-04-25T11:39:47.536;704201986668651648;266748;287440;300135;-630;
2022-04-25T11:39:47.555;704201986686917732;266814;287466;300224;-585;
2022-04-25T11:39:47.573;704201986705183816;266913;287486;300221;-559;
2022-04-25T11:39:47.591;704201986723449900;266891;287447;300240;-624;
2022-04-25T11:39:47.609;704201986741715984;266883;287432;300273;-578;
2022-04-25T11:39:47.628;704201986759982068;266854;287320;300242;-597;
2022-04-25T11:39:47.646;704201986778248152;266926;287327;300254;-588;
2022-04-25T11:39:47.664;704201986796514236;266949;287369;300325;-625;
2022-04-25T11:39:47.682;704201986814780320;266956;287322;300292;-588;
2022-04-25T11:39:47.701;704201986833046404;266979;287333;300310;-648;
2022-04-25T11:39:47.719;704201986851312488;266961;287298;300294;-653;
2022-04-25T11:39:47.737;704201986869578572;267025;287334;300381;-658;
2022-04-25T11:39:47.755;704201986887844656;267085;287373;300374;-605;
2022-04-25T11:39:47.774;704201986906110740;266983;287249;300326;-583;
2022-04-25T11:39:47.792;704201986924376824;266828;287027;300143;-675;
2022-04-25T11:39:47.810;704201986942642908;266678;286931;300031;-595;
2022-04-25T11:39:47.829;704201986960908992;266410;286712;299806;-625;
2022-04-25T11:39:47.847;704201986979175076;266221;286558;299613;-614;
2022-04-25T11:39:47.865;704201986997441160;266015;286335;299364;-568;
2022-04-25T11:39:47.883;704201987015707244;265783;286158;299134;-560;
2022-04-25T11:39:47.902;704201987033973328;265603;285957;298909;-603;
2022-04-25T11:39:47.920;704201987052239412;265395;285806;298645;-563;
2022-04-25T11:39:47.938;704201987070505496;265174;285684;298468;-563;
2022-04-25T11:39:47.956;704201987088771580;264983;285486;298219;-631;
2022-04-25T11:39:47.975;704201987107037664;264816;285332;298041;-568;
2022-04-25T11:39:47.993;704201987125303748;264691;285127;297878;-628;
2022-04-25T11:39:48.011;704201987143569832;264500;284991;297673;-625;
2022-04-25T11:39:48.029;704201987161835916;264392;284937;297622;-581;
2022-04-25T11:39:48.048;704201987180102000;264310;284861;297475;-598;
2022-04-25T11:39:48.066;704201987198368084;264253;284849;297377;-559;
2022-04-25T11:39:48.084;704201987216634168;264162;284775;297323;-587;
2022-04-25T11:39:48.103;704201987234900252;264086;284657;297271;-585;
2022-04-25T11:39:48.121;704201987253166336;264073;284592;297185;-634;
2022-04-25T11:39:48.139;704201987271432420;263969;284524;297104;-628;
2022-04-25T11:39:48.157;704201987289698504;263873;284438;297026;-594;
2022-04-25T11:39:48.176;704201987307964588;263848;284385;296987;-625;
2022-04-25T11:39:48.194;704201987326230672;263863;284341;296914;-643;
2022-04-25T11:39:48.212;704201987344496756;263846;284291;296913;-611;
2022-04-25T11:39:48.230;704201987362762840;263755;284256;296906;-598;
2022-04-25T11:39:48.249;704201987381028924;263811;284186;296871;-575;
2022-04-25T11:39:48.267;704201987399295008;263725;284152;296879;-600;
2022-04-25T11:39:48.285;704201987417561092;263733;284139;296855;-592;
2022-04-25T11:39:48.303;704201987435827176;263749;284147;296804;-553;
2022-04-25T11:39:48.322;704201987454093260;263733;284088;296737;-551;
2022-04-25T11:39:48.340;704201987472358861;263728;284081;296753;-591;
2022-04-25T11:39:48.358;704201987490624438;263740;284137;296809;-514;
2022-04-25T11:39:48.377;704201987508890015;263673;284077;296778;-570;
2022-04-25T11:39:48.395;704201987527155592;263739;284116;296808;-584;
2022-04-25T11:39:48.413;704201987545421169;263713;284084;296792;-536;
2022-04-25T11:39:48.431;704201987563686746;263685;284059;296829;-584;
2022-04-25T11:39:48.450;704201987581952323;263788;284102;296898;-563;
2022-04-25T11:39:48.468;704201987600217900;263779;284049;296883;-623;
2022-04-25T11:39:48.486;704201987618483477;263803;284085;296872;-622;
2022-04-25T11:39:48.504;704201987636749054;263845;284095;296938;-614;
2022-04-25T11:39:48.523;704201987655014631;263893;284111;296928;-604;
2022-04-25T11:39:48.541;704201987673280208;263892;284112;297004;-552;
2022-04-25T11:39:48.559;704201987691545785;263958;284121;297028;-603;
2022-04-25T11:39:48.577;704201987709811362;263961;284180;297098;-536;
2022-04-25T11:39:48.596;704201987728076939;264027;284144;297112;-564;
2022-04-25T11:39:48.614;704201987746342516;264072;284186;297212;-571;
2022-04-25T11:39:48.632;704201987764608093;264206;284224;297280;-498;
2022-04-25T11:39:48.650;704201987782873670;264193;284251;297350;-540;
2022-04-25T11:39:48.669;704201987801139247;264239;284333;297367;-583;
2022-04-25T11:39:48.687;704201987819404824;264302;284458;297472;-558;
2022-04-25T11:39:48.705;704201987837670401;264378;284384;297479;-542;
2022-04-25T11:39:48.724;704201987855935978;264463;284491;297582;-514;
2022-04-25T11:39:48.742;704201987874201555;264504;284445;297602;-575;
2022-04-25T11:39:48.760;704201987892467132;264569;284529;297726;-561;
2022-04-25T11:39:48.778;704201987910732709;264603;284592;297780;-523;
2022-04-25T11:39:48.797;704201987928998286;264596;284605;297802;-589;
2022-04-25T11:39:48.815;704201987947263863;264708;284625;297850;-591;
2022-04-25T11:39:48.833;704201987965529440;264745;284704;297947;-590;
2022-04-25T11:39:48.851;704201987983795017;264670;284521;297845;-636;
2022-04-25T11:39:48.870;704201988002060594;264557;284513;297791;-632;
2022-04-25T11:39:48.888;704201988020326171;264470;284373;297650;-649;
2022-04-25T11:39:48.906;704201988038591748;264354;284275;297505;-635;
2022-04-25T11:39:48.924;704201988056857325;264214;284167;297391;-670;
2022-04-25T11:39:48.943;704201988075122902;264091;284044;297229;-657;
2022-04-25T11:39:48.961;704201988093388479;263927;283897;297061;-644;
2022-04-25T11:39:48.979;704201988111654056;263766;283737;296849;-674;
2022-04-25T11:39:48.998;704201988129919633;263658;283580;296695;-596;
2022-04-25T11:39:49.016;704201988148185210;263557;283518;296581;-580;
2022-04-25T11:39:49.034;704201988166450787;263362;283402;296382;-621;
2022-04-25T11:39:49.052;704201988184716364;263244;283303;296270;-638;
2022-04-25T11:39:49.071;704201988202981941;263022;283136;296094;-647;
2022-04-25T11:39:49.089;704201988221247518;262967;283182;296036;-647;
2022-04-25T11:39:49.107;704201988239513095;262979;283111;295989;-694;
2022-04-25T11:39:49.125;704201988257778672;262933;282993;295888;-670;
2022-04-25T11:39:49.144;704201988276044588;262840;282968;295834;-670;
2022-04-25T11:39:49.162;704201988294310466;262801;282942;295780;-763;
2022-04-25T11:39:49.180;704201988312576344;262818;282952;295781;-703;
2022-04-25T11:39:49.198;704201988330842222;262837;282925;295815;-697;
2022-04-25T11:39:49.217;704201988349108100;262818;282896;295783;-652;
2022-04-25T11:39:49.235;704201988367373978;262768;282908;295773;-686;
2022-04-25T11:39:49.253;704201988385639856;262839;282923;295800;-681;
2022-04-25T11:39:49.272;704201988403905734;262857;282863;295716;-673;
2022-04-25T11:39:49.290;704201988422171612;262882;282928;295859;-668;
2022-04-25T11:39:49.308;704201988440437490;262817;282855;295807;-713;
2022-04-25T11:39:49.326;704201988458703368;262889;282839;295847;-648;
2022-04-25T11:39:49.345;704201988476969246;262799;282882;295834;-732;
2022-04-25T11:39:49.363;704201988495235124;262870;282870;295870;-723;
2022-04-25T11:39:49.381;704201988513501002;262929;282896;295890;-706;
2022-04-25T11:39:49.399;704201988531766880;262918;282871;295943;-730;
2022-04-25T11:39:49.418;704201988550032758;262964;282886;295939;-677;
2022-04-25T11:39:49.436;704201988568298636;263019;282927;295985;-710;
2022-04-25T11:39:49.454;704201988586564514;263062;282972;296049;-702;
2022-04-25T11:39:49.472;704201988604830392;263213;282990;296155;-674;
2022-04-25T11:39:49.491;704201988623096270;263192;283003;296187;-649;
2022-04-25T11:39:49.509;704201988641362148;263252;283067;296217;-691;
2022-04-25T11:39:49.527;704201988659628026;263338;283175;296321;-687;
2022-04-25T11:39:49.546;704201988677893904;263393;283158;296400;-726;
2022-04-25T11:39:49.564;704201988696159782;263471;283167;296439;-665;
2022-04-25T11:39:49.582;704201988714425660;263522;283215;296533;-626;
2022-04-25T11:39:49.600;704201988732691538;263472;283210;296548;-757;
2022-04-25T11:39:49.619;704201988750957416;263615;283235;296595;-702;
2022-04-25T11:39:49.637;704201988769223294;263671;283291;296645;-651;
2022-04-25T11:39:49.655;704201988787489172;263731;283356;296709;-740;
2022-04-25T11:39:49.673;704201988805755050;263744;283416;296854;-739;
2022-04-25T11:39:49.692;704201988824020928;263883;283486;296915;-704;
2022-04-25T11:39:49.710;704201988842286806;264025;283561;297020;-677;
2022-04-25T11:39:49.728;704201988860552684;264034;283610;297117;-706;
2022-04-25T11:39:49.746;704201988878818562;264215;283718;297265;-618;
2022-04-25T11:39:49.765;704201988897084440;264209;283710;297277;-712;
2022-04-25T11:39:49.783;704201988915350318;264339;283810;297463;-658;
2022-04-25T11:39:49.801;704201988933616196;264428;283910;297468;-673;
2022-04-25T11:39:49.820;704201988951882074;264479;283875;297593;-659;
2022-04-25T11:39:49.838;704201988970147952;264541;283939;297644;-694;
2022-04-25T11:39:49.856;704201988988413830;264718;284034;297779;-640;
2022-04-25T11:39:49.874;704201989006679708;264830;284162;297915;-609;
2022-04-25T11:39:49.893;704201989024946270;264879;284189;297945;-623;
2022-04-25T11:39:49.911;704201989043212819;264872;284290;298041;-703;
2022-04-25T11:39:49.929;704201989061479368;265031;284401;298188;-617;
2022-04-25T11:39:49.947;704201989079745917;265153;284442;298257;-621;
2022-04-25T11:39:49.966;704201989098012466;265239;284437;298346;-594;
2022-04-25T11:39:49.984;704201989116279015;265274;284539;298429;-579;
2022-04-25T11:39:50.002;704201989134545564;265431;284619;298555;-583;
2022-04-25T11:39:50.020;704201989152812113;265461;284659;298606;-615;
2022-04-25T11:39:50.039;704201989171078662;265599;284739;298766;-614;
2022-04-25T11:39:50.057;704201989189345211;265585;284796;298768;-674;
2022-04-25T11:39:50.075;704201989207611760;265528;284750;298734;-689;
2022-04-25T11:39:50.093;704201989225878309;265484;284643;298774;-678;
2022-04-25T11:39:50.112;704201989244144858;265416;284615;298656;-692;
2022-04-25T11:39:50.130;704201989262411407;265346;284521;298571;-631;
2022-04-25T11:39:50.148;704201989280677956;265257;284407;298484;-676;
2022-04-25T11:39:50.167;704201989298944505;265239;284321;298394;-638;
2022-04-25T11:39:50.185;704201989317211054;265091;284250;298280;-664;
2022-04-25T11:39:50.203;704201989335477603;264976;284148;298189;-643;
2022-04-25T11:39:50.221;704201989353744152;264947;284143;298151;-632;
2022-04-25T11:39:50.240;704201989372010701;264882;284010;298051;-687;
2022-04-25T11:39:50.258;704201989390277250;264786;283947;297953;-661;
2022-04-25T11:39:50.276;704201989408543799;264721;283937;297864;-646;
2022-04-25T11:39:50.294;704201989426810348;264687;283855;297883;-644;
2022-04-25T11:39:50.313;704201989445076897;264694;283805;297863;-655;
2022-04-25T11:39:50.331;704201989463343446;264634;283730;297783;-656;
2022-04-25T11:39:50.349;704201989481609995;264710;283815;297822;-661;
2022-04-25T11:39:50.367;704201989499876544;264652;283745;297755;-668;
2022-04-25T11:39:50.386;704201989518143093;264690;283713;297768;-642;
2022-04-25T11:39:50.404;704201989536409642;264738;283818;297860;-612;
2022-04-25T11:39:50.422;704201989554676191;264694;283733;297851;-625;
2022-04-25T11:39:50.441;704201989572942740;264727;283788;297864;-660;
2022-04-25T11:39:50.459;704201989591209289;264790;283734;297830;-625;
2022-04-25T11:39:50.477;704201989609475838;264879;283734;297936;-605;
2022-04-25T11:39:50.495;704201989627742387;264729;283724;297810;-664;
2022-04-25T11:39:50.514;704201989646008936;264779;283753;297835;-676;
2022-04-25T11:39:50.532;704201989664275485;264846;283756;297908;-720;
2022-04-25T11:39:50.550;704201989682542034;264897;283777;298010;-647;
2022-04-25T11:39:50.568;704201989700808583;264904;283779;297933;-671;
2022-04-25T11:39:50.587;704201989719075132;264924;283806;297977;-658;
2022-04-25T11:39:50.605;704201989737341681;264988;283870;298031;-674;
2022-04-25T11:39:50.623;704201989755608230;265050;283857;298020;-680;
2022-04-25T11:39:50.641;704201989773874062;265059;283883;298105;-612;
2022-04-25T11:39:50.660;704201989792139884;265170;283913;298173;-659;
2022-04-25T11:39:50.678;704201989810405706;265222;283849;298256;-618;
2022-04-25T11:39:50.696;704201989828671528;265244;283959;298249;-660;
2022-04-25T11:39:50.715;704201989846937350;265316;283960;298286;-686;
2022-04-25T11:39:50.733;704201989865203172;265287;283979;298331;-692;
2022-04-25T11:39:50.751;704201989883468994;265386;284053;298454;-626;
2022-04-25T11:39:50.769;704201989901734816;265408;284095;298515;-628;
2022-04-25T11:39:50.788;704201989920000638;265479;284200;298622;-601;
2022-04-25T11:39:50.806;704201989938266460;265510;284204;298649;-629;
2022-04-25T11:39:50.824;704201989956532282;265618;284285;298789;-576;
2022-04-25T11:39:50.842;704201989974798104;265685;284304;298847;-642;
2022-04-25T11:39:50.861;704201989993063926;265724;284342;298843;-663;
2022-04-25T11:39:50.879;704201990011329748;265856;284390;298918;-639;
2022-04-25T11:39:50.897;704201990029595570;265911;284468;299040;-675;
2022-04-25T11:39:50.915;704201990047861392;265922;284416;299083;-695;
2022-04-25T11:39:50.934;704201990066127214;265998;284537;299250;-647;
2022-04-25T11:39:50.952;704201990084393036;266079;284570;299249;-663;
2022-04-25T11:39:50.970;704201990102658858;266164;284646;299288;-649;
2022-04-25T11:39:50.989;704201990120924680;266268;284649;299389;-614;
2022-04-25T11:39:51.007;704201990139190502;266321;284668;299493;-651;
2022-04-25T11:39:51.025;704201990157456324;266419;284816;299562;-640;
2022-04-25T11:39:51.043;704201990175722146;266534;284853;299610;-620;
2022-04-25T11:39:51.062;704201990193987968;266589;284920;299696;-635;
2022-04-25T11:39:51.080;704201990212253790;266620;284909;299773;-696;
2022-04-25T11:39:51.098;704201990230519612;266739;285102;299885;-621;
2022-04-25T11:39:51.116;704201990248785434;266837;285101;299951;-627;
2022-04-25T11:39:51.135;704201990267051256;266883;285196;300088;-638;
2022-04-25T11:39:51.153;704201990285317078;266960;285203;300138;-611;
2022-04-25T11:39:51.171;704201990303582900;267101;285323;300296;-587;
2022-04-25T11:39:51.189;704201990321848722;267133;285377;300392;-538;
2022-04-25T11:39:51.208;704201990340114544;267153;285450;300393;-639;
2022-04-25T11:39:51.226;704201990358380366;267263;285484;300516;-601;
2022-04-25T11:39:51.244;704201990376646188;267405;285535;300566;-606;
2022-04-25T11:39:51.263;704201990394912010;267440;285568;300677;-630;
2022-04-25T11:39:51.281;704201990413177832;267511;285599;300687;-677;
2022-04-25T11:39:51.299;704201990431443654;267464;285599;300688;-669;
2022-04-25T11:39:51.317;704201990449709476;267447;285594;300653;-653;
2022-04-25T11:39:51.336;704201990467975298;267359;285452;300507;-608;
2022-04-25T11:39:51.354;704201990486241120;267260;285350;300482;-679;
2022-04-25T11:39:51.372;704201990504506942;267182;285270;300470;-600;
2022-04-25T11:39:51.390;704201990522772764;267108;285211;300294;-657;
2022-04-25T11:39:51.409;704201990541039348;267058;285041;300245;-640;
2022-04-25T11:39:51.427;704201990559305896;266881;285015;300064;-610;
2022-04-25T11:39:51.445;704201990577572444;266816;284848;299977;-628;
2022-04-25T11:39:51.463;704201990595838992;266745;284792;299947;-569;
2022-04-25T11:39:51.482;704201990614105540;266591;284731;299789;-652;
2022-04-25T11:39:51.500;704201990632372088;266562;284653;299728;-589;
2022-04-25T11:39:51.518;704201990650638636;266448;284532;299660;-625;
2022-04-25T11:39:51.537;704201990668905184;266432;284462;299603;-674;
2022-04-25T11:39:51.555;704201990687171732;266417;284417;299594;-674;
2022-04-25T11:39:51.573;704201990705438280;266349;284358;299604;-673;
2022-04-25T11:39:51.591;704201990723704828;266380;284366;299594;-626;
2022-04-25T11:39:51.610;704201990741971376;266309;284268;299585;-645;
2022-04-25T11:39:51.628;704201990760237924;266289;284293;299523;-639;
2022-04-25T11:39:51.646;704201990778504472;266340;284262;299567;-639;
2022-04-25T11:39:51.664;704201990796771020;266319;284228;299513;-634;
2022-04-25T11:39:51.683;704201990815037568;266324;284218;299538;-641;
2022-04-25T11:39:51.701;704201990833304116;266284;284147;299441;-658;
2022-04-25T11:39:51.719;704201990851570664;266269;284193;299443;-648;
2022-04-25T11:39:51.737;704201990869837212;266227;284103;299426;-698;
2022-04-25T11:39:51.756;704201990888103760;266277;284205;299532;-623;
2022-04-25T11:39:51.774;704201990906370308;266271;284152;299463;-638;
2022-04-25T11:39:51.792;704201990924636856;266326;284173;299486;-575;
2022-04-25T11:39:51.811;704201990942903404;266318;284171;299554;-624;
2022-04-25T11:39:51.829;704201990961169952;266284;284081;299547;-641;
2022-04-25T11:39:51.847;704201990979436500;266306;284167;299553;-678;
2022-04-25T11:39:51.865;704201990997703048;266390;284161;299577;-598;
2022-04-25T11:39:51.884;704201991015969596;266358;284203;299547;-607;
2022-04-25T11:39:51.902;704201991034236144;266393;284220;299647;-603;
2022-04-25T11:39:51.920;704201991052502692;266460;284211;299655;-584;
2022-04-25T11:39:51.938;704201991070769240;266535;284262;299713;-544;
2022-04-25T11:39:51.957;704201991089035788;266568;284233;299764;-623;
2022-04-25T11:39:51.975;704201991107302336;266555;284269;299826;-563;
2022-04-25T11:39:51.993;704201991125568884;266620;284275;299904;-652;
2022-04-25T11:39:52.011;704201991143835432;266662;284272;299909;-635;
2022-04-25T11:39:52.030;704201991162101980;266670;284267;299970;-607;
2022-04-25T11:39:52.048;704201991180368528;266655;284338;299986;-664;
2022-04-25T11:39:52.066;704201991198635076;266716;284403;300029;-658;
2022-04-25T11:39:52.085;704201991216901624;266718;284383;300030;-686;
2022-04-25T11:39:52.103;704201991235168172;266864;284450;300139;-612;
2022-04-25T11:39:52.121;704201991253434720;266828;284418;300167;-697;
2022-04-25T11:39:52.139;704201991271701268;266893;284468;300219;-658;
2022-04-25T11:39:52.158;704201991289967816;266983;284552;300332;-629;
2022-04-25T11:39:52.176;704201991308234364;267041;284605;300335;-645;
2022-04-25T11:39:52.194;704201991326500912;267101;284648;300416;-615;
2022-04-25T11:39:52.212;704201991344767460;267181;284760;300485;-649;
2022-04-25T11:39:52.231;704201991363033306;267191;284785;300529;-622;
2022-04-25T11:39:52.249;704201991381299145;267204;284831;300616;-674;
2022-04-25T11:39:52.267;704201991399564984;267284;284810;300713;-623;
2022-04-25T11:39:52.285;704201991417830823;267362;284782;300717;-683;
2022-04-25T11:39:52.304;704201991436096662;267491;284846;300812;-604;
2022-04-25T11:39:52.322;704201991454362501;267472;284886;300842;-613;
2022-04-25T11:39:52.340;704201991472628340;267565;284990;300977;-610;
2022-04-25T11:39:52.359;704201991490894179;267615;285031;301003;-609;
2022-04-25T11:39:52.377;704201991509160018;267670;285072;301048;-613;
2022-04-25T11:39:52.395;704201991527425857;267782;285107;301157;-601;
2022-04-25T11:39:52.413;704201991545691696;267835;285128;301243;-643;
2022-04-25T11:39:52.432;704201991563957535;267879;285195;301307;-649;
2022-04-25T11:39:52.450;704201991582223374;267861;285145;301348;-573;
2022-04-25T11:39:52.468;704201991600489213;267805;285124;301274;-542;
2022-04-25T11:39:52.486;704201991618755052;267754;285059;301184;-611;
2022-04-25T11:39:52.505;704201991637020891;267655;285006;301134;-618;
2022-04-25T11:39:52.523;704201991655286730;267467;284835;300982;-603;
2022-04-25T11:39:52.541;704201991673552569;267406;284682;300834;-563;
2022-04-25T11:39:52.559;704201991691818408;267244;284527;300735;-560;
2022-04-25T11:39:52.578;704201991710084247;267055;284317;300483;-612;
2022-04-25T11:39:52.596;704201991728350086;266906;284177;300446;-629;
2022-04-25T11:39:52.614;704201991746615925;266757;284076;300293;-607;
2022-04-25T11:39:52.633;704201991764881764;266636;283883;300164;-598;
2022-04-25T11:39:52.651;704201991783147603;266473;283749;300028;-575;
2022-04-25T11:39:52.669;704201991801413442;266328;283606;299896;-571;
2022-04-25T11:39:52.687;704201991819679281;266231;283488;299801;-554;
2022-04-25T11:39:52.706;704201991837945120;266167;283420;299757;-560;
2022-04-25T11:39:52.724;704201991856210959;266072;283317;299636;-623;
2022-04-25T11:39:52.742;704201991874476798;265949;283262;299543;-615;
2022-04-25T11:39:52.760;704201991892742637;265934;283182;299466;-592;
2022-04-25T11:39:52.779;704201991911008476;265864;283179;299495;-562;
2022-04-25T11:39:52.797;704201991929274315;265767;283110;299399;-591;
2022-04-25T11:39:52.815;704201991947540154;265748;283027;299316;-603;
2022-04-25T11:39:52.833;704201991965805993;265738;283015;299302;-559;
2022-04-25T11:39:52.852;704201991984071832;265699;282959;299256;-562;
2022-04-25T11:39:52.870;704201992002337671;265639;282888;299221;-637;
2022-04-25T11:39:52.888;704201992020603510;265589;282784;299192;-584;
2022-04-25T11:39:52.906;704201992038869349;265503;282727;299110;-626;
2022-04-25T11:39:52.925;704201992057135188;265462;282671;299050;-614;
2022-04-25T11:39:52.943;704201992075401027;265489;282658;299072;-655;
2022-04-25T11:39:52.961;704201992093666866;265422;282549;299051;-630;
2022-04-25T11:39:52.980;704201992111932705;265396;282617;299024;-641;
2022-04-25T11:39:52.998;704201992130198544;265403;282570;299030;-620;
2022-04-25T11:39:53.016;704201992148465126;265421;282479;299016;-588;
2022-04-25T11:39:53.034;704201992166731674;265345;282472;298975;-541;
2022-04-25T11:39:53.053;704201992184998222;265311;282521;298991;-561;
2022-04-25T11:39:53.071;704201992203264770;265324;282462;298978;-576;
2022-04-25T11:39:53.089;704201992221531318;265311;282478;298976;-561;
2022-04-25T11:39:53.107;704201992239797866;265385;282529;299039;-574;
2022-04-25T11:39:53.126;704201992258064414;265387;282464;299028;-622;
2022-04-25T11:39:53.144;704201992276330962;265411;282507;299015;-629;
2022-04-25T11:39:53.162;704201992294597510;265391;282393;299020;-590;
2022-04-25T11:39:53.180;704201992312864058;265368;282441;299014;-604;
2022-04-25T11:39:53.199;704201992331130606;265411;282477;299079;-642;
2022-04-25T11:39:53.217;704201992349397154;265404;282463;299120;-604;
2022-04-25T11:39:53.235;704201992367663702;265403;282537;299123;-579;
2022-04-25T11:39:53.254;704201992385930250;265391;282482;299089;-661;
2022-04-25T11:39:53.272;704201992404196798;265412;282510;299112;-640;
2022-04-25T11:39:53.290;704201992422463346;265482;282494;299165;-621;
2022-04-25T11:39:53.308;704201992440729894;265468;282484;299185;-657;
2022-04-25T11:39:53.327;704201992458996442;265579;282526;299220;-637;
2022-04-25T11:39:53.345;704201992477262990;265597;282567;299284;-619;
2022-04-25T11:39:53.363;704201992495529538;265634;282612;299400;-549;
2022-04-25T11:39:53.381;704201992513796086;265654;282638;299410;-586;
2022-04-25T11:39:53.400;704201992532062634;265678;282549;299375;-606;
2022-04-25T11:39:53.418;704201992550329182;265647;282592;299467;-598;
2022-04-25T11:39:53.436;704201992568595730;265706;282661;299464;-632;
2022-04-25T11:39:53.454;704201992586862278;265784;282645;299518;-617;
2022-04-25T11:39:53.473;704201992605128826;265838;282693;299546;-624;
2022-04-25T11:39:53.491;704201992623395374;265892;282784;299619;-637;
2022-04-25T11:39:53.509;704201992641661922;265911;282768;299643;-657;
2022-04-25T11:39:53.528;704201992659928470;265926;282857;299681;-579;
2022-04-25T11:39:53.546;704201992678195018;266013;282943;299763;-572;
2022-04-25T11:39:53.564;704201992696461566;266036;282914;299777;-646;
2022-04-25T11:39:53.582;704201992714728114;266075;282947;299890;-624;
2022-04-25T11:39:53.601;704201992732994662;266095;282974;299882;-636;
2022-04-25T11:39:53.619;704201992751261210;266085;282904;299833;-593;
2022-04-25T11:39:53.637;704201992769527758;265967;282840;299827;-577;
2022-04-25T11:39:53.655;704201992787794306;265788;282789;299590;-591;
2022-04-25T11:39:53.674;704201992806060854;265680;282497;299420;-575;
2022-04-25T11:39:53.692;704201992824327402;265425;282350;299294;-560;
2022-04-25T11:39:53.710;704201992842593950;265209;282114;298965;-569;
2022-04-25T11:39:53.728;704201992860860498;264893;281792;298685;-584;
2022-04-25T11:39:53.747;704201992879127046;264629;281566;298474;-634;
2022-04-25T11:39:53.765;704201992897393594;264411;281253;298232;-618;
2022-04-25T11:39:53.783;704201992915660142;264201;281044;297964;-581;
2022-04-25T11:39:53.802;704201992933926690;263908;280747;297719;-549;
2022-04-25T11:39:53.820;704201992952193238;263594;280517;297450;-622;
2022-04-25T11:39:53.838;704201992970459786;263413;280268;297150;-596;
2022-04-25T11:39:53.856;704201992988726334;263144;280049;296949;-626;
2022-04-25T11:39:53.875;704201993006991693;262931;279794;296754;-577;
2022-04-25T11:39:53.893;704201993025257014;262760;279594;296585;-645;
2022-04-25T11:39:53.911;704201993043522335;262645;279497;296497;-584;
2022-04-25T11:39:53.929;704201993061787656;262470;279332;296246;-626;
2022-04-25T11:39:53.948;704201993080052977;262367;279134;296147;-637;
2022-04-25T11:39:53.966;704201993098318298;262240;278990;296023;-626;
2022-04-25T11:39:53.984;704201993116583619;262128;278965;295910;-602;
2022-04-25T11:39:54.002;704201993134848940;262012;278833;295788;-627;
2022-04-25T11:39:54.021;704201993153114261;262003;278734;295713;-636;
2022-04-25T11:39:54.039;704201993171379582;261876;278639;295573;-634;
2022-04-25T11:39:54.057;704201993189644903;261751;278520;295532;-576;
2022-04-25T11:39:54.076;704201993207910224;261622;278388;295380;-663;
2022-04-25T11:39:54.094;704201993226175545;261511;278295;295353;-624;
2022-04-25T11:39:54.112;704201993244440866;261489;278286;295272;-608;
2022-04-25T11:39:54.130;704201993262706187;261386;278194;295176;-556;
2022-04-25T11:39:54.149;704201993280971508;261312;278125;295113;-596;
2022-04-25T11:39:54.167;704201993299236829;261360;278057;295064;-553;
2022-04-25T11:39:54.185;704201993317502150;261244;277910;294920;-601;
2022-04-25T11:39:54.203;704201993335767471;261226;277971;294920;-567;
2022-04-25T11:39:54.222;704201993354032792;261177;277876;294866;-564;
2022-04-25T11:39:54.240;704201993372298113;261114;277738;294775;-606;
2022-04-25T11:39:54.258;704201993390563434;261075;277735;294822;-609;
2022-04-25T11:39:54.276;704201993408828755;261056;277680;294810;-619;
2022-04-25T11:39:54.295;704201993427094076;261010;277648;294684;-619;
2022-04-25T11:39:54.313;704201993445359397;261032;277595;294699;-625;
2022-04-25T11:39:54.331;704201993463624718;260997;277634;294716;-597;
2022-04-25T11:39:54.350;704201993481890039;260917;277544;294632;-652;
2022-04-25T11:39:54.368;704201993500155360;260993;277511;294652;-632;
2022-04-25T11:39:54.386;704201993518420681;260979;277538;294704;-635;
2022-04-25T11:39:54.404;704201993536686002;260971;277508;294689;-662;
2022-04-25T11:39:54.423;704201993554951323;260976;277552;294682;-614;
2022-04-25T11:39:54.441;704201993573216644;261077;277597;294763;-563;
2022-04-25T11:39:54.459;704201993591481965;260994;277493;294680;-645;
2022-04-25T11:39:54.477;704201993609747286;260988;277548;294731;-602;
2022-04-25T11:39:54.496;704201993628012607;260966;277473;294727;-664;
2022-04-25T11:39:54.514;704201993646277928;260984;277381;294689;-607;
2022-04-25T11:39:54.532;704201993664543249;261060;277463;294758;-549;
2022-04-25T11:39:54.550;704201993682808570;261078;277560;294772;-605;
2022-04-25T11:39:54.569;704201993701073891;261136;277477;294764;-606;
2022-04-25T11:39:54.587;704201993719339212;261173;277506;294818;-583;
2022-04-25T11:39:54.605;704201993737604533;261194;277529;294851;-581;
2022-04-25T11:39:54.623;704201993755869854;261238;277562;294942;-644;
2022-04-25T11:39:54.642;704201993774135175;261248;277583;294916;-661;
2022-04-25T11:39:54.660;704201993792400496;261284;277641;295024;-636;
2022-04-25T11:39:54.678;704201993810665817;261338;277666;295045;-637;
2022-04-25T11:39:54.697;704201993828931138;261339;277614;295039;-648;
2022-04-25T11:39:54.715;704201993847198161;261420;277692;295063;-622;
2022-04-25T11:39:54.733;704201993865465145;261450;277703;295107;-621;
2022-04-25T11:39:54.751;704201993883732129;261523;277739;295203;-610;
2022-04-25T11:39:54.770;704201993901999113;261477;277746;295195;-617;
2022-04-25T11:39:54.788;704201993920266097;261576;277859;295244;-577;
2022-04-25T11:39:54.806;704201993938533081;261570;277807;295289;-621;
2022-04-25T11:39:54.824;704201993956800065;261490;277814;295233;-639;
2022-04-25T11:39:54.843;704201993975067049;261393;277655;295113;-623;
2022-04-25T11:39:54.861;704201993993334033;261193;277496;294896;-617;
2022-04-25T11:39:54.879;704201994011601017;260980;277198;294629;-623;
2022-04-25T11:39:54.897;704201994029868001;260675;276994;294322;-626;
2022-04-25T11:39:54.916;704201994048134985;260393;276584;294100;-579;
2022-04-25T11:39:54.934;704201994066401969;260067;276316;293762;-584;
2022-04-25T11:39:54.952;704201994084668953;259769;275997;293430;-538;
2022-04-25T11:39:54.971;704201994102935937;259431;275680;293127;-602;
2022-04-25T11:39:54.989;704201994121202921;259128;275407;292753;-655;
2022-04-25T11:39:55.007;704201994139469905;258828;275051;292417;-597;
2022-04-25T11:39:55.025;704201994157736889;258520;274787;292153;-627;
2022-04-25T11:39:55.044;704201994176003873;258278;274578;291875;-587;
2022-04-25T11:39:55.062;704201994194270857;257992;274260;291582;-652;
2022-04-25T11:39:55.080;704201994212537841;257801;274024;291306;-625;
2022-04-25T11:39:55.098;704201994230804825;257597;273854;291120;-609;
2022-04-25T11:39:55.117;704201994249071809;257504;273756;290996;-625;
2022-04-25T11:39:55.135;704201994267338793;257290;273539;290774;-663;
2022-04-25T11:39:55.153;704201994285605777;257168;273437;290748;-617;
2022-04-25T11:39:55.171;704201994303872761;257078;273318;290531;-625;
2022-04-25T11:39:55.190;704201994322139745;256973;273202;290479;-591;
2022-04-25T11:39:55.208;704201994340406729;256864;273014;290352;-625;
2022-04-25T11:39:55.226;704201994358673713;256708;272920;290216;-636;
2022-04-25T11:39:55.245;704201994376940697;256575;272816;290122;-674;
2022-04-25T11:39:55.263;704201994395207681;256590;272673;289941;-629;
2022-04-25T11:39:55.281;704201994413474665;256416;272581;289869;-563;
2022-04-25T11:39:55.299;704201994431741649;256338;272469;289694;-618;
2022-04-25T11:39:55.318;704201994450008633;256222;272393;289628;-655;
2022-04-25T11:39:55.336;704201994468275617;256207;272328;289592;-662;
2022-04-25T11:39:55.354;704201994486542601;256120;272269;289486;-597;
2022-04-25T11:39:55.372;704201994504809585;256036;272194;289406;-686;
2022-04-25T11:39:55.391;704201994523076569;256001;272109;289390;-630;
2022-04-25T11:39:55.409;704201994541343553;256006;272061;289383;-580;
2022-04-25T11:39:55.427;704201994559610537;256010;272059;289329;-575;
2022-04-25T11:39:55.445;704201994577877521;255966;272028;289290;-612;
2022-04-25T11:39:55.464;704201994596144505;255972;271968;289297;-620;
2022-04-25T11:39:55.482;704201994614409850;255952;271931;289266;-603;
2022-04-25T11:39:55.500;704201994632675171;255997;271869;289226;-643;
2022-04-25T11:39:55.519;704201994650940492;255959;271897;289233;-617;
2022-04-25T11:39:55.537;704201994669205813;255943;271879;289192;-632;
2022-04-25T11:39:55.555;704201994687471134;255895;271780;289173;-653;
2022-04-25T11:39:55.573;704201994705736455;255912;271809;289173;-621;
2022-04-25T11:39:55.592;704201994724001776;255933;271859;289241;-649;
2022-04-25T11:39:55.610;704201994742267097;255909;271834;289203;-693;
2022-04-25T11:39:55.628;704201994760532418;255948;271913;289212;-652;
2022-04-25T11:39:55.646;704201994778797739;256050;271925;289237;-615;
2022-04-25T11:39:55.665;704201994797063060;256013;271862;289252;-632;
2022-04-25T11:39:55.683;704201994815328381;256068;271929;289332;-588;
2022-04-25T11:39:55.701;704201994833593702;256085;271971;289349;-623;
2022-04-25T11:39:55.719;704201994851859023;256140;271971;289401;-612;
2022-04-25T11:39:55.738;704201994870124344;256156;271967;289438;-632;
2022-04-25T11:39:55.756;704201994888389665;256186;271950;289495;-628;
2022-04-25T11:39:55.774;704201994906654986;256252;272061;289573;-612;
2022-04-25T11:39:55.793;704201994924920307;256321;272084;289563;-587;
2022-04-25T11:39:55.811;704201994943185628;256351;272131;289635;-641;
2022-04-25T11:39:55.829;704201994961450949;256411;272191;289687;-627;
2022-04-25T11:39:55.847;704201994979716270;256453;272262;289693;-638;
2022-04-25T11:39:55.866;704201994997981591;256513;272312;289810;-592;
2022-04-25T11:39:55.884;704201995016246912;256539;272271;289786;-591;
2022-04-25T11:39:55.902;704201995034512233;256609;272359;289844;-608;
2022-04-25T11:39:55.920;704201995052777554;256688;272369;289936;-600;
2022-04-25T11:39:55.939;704201995071042875;256799;272508;290017;-537;
2022-04-25T11:39:55.957;704201995089308196;256797;272429;290012;-581;
2022-04-25T11:39:55.975;704201995107573517;256783;272436;289960;-546;
2022-04-25T11:39:55.993;704201995125838838;256523;272266;289835;-602;
2022-04-25T11:39:56.012;704201995144104159;256378;272087;289550;-592;
2022-04-25T11:39:56.030;704201995162369480;256094;271869;289309;-648;
2022-04-25T11:39:56.048;704201995180634801;255813;271547;289015;-603;
2022-04-25T11:39:56.067;704201995198900122;255584;271284;288766;-618;
2022-04-25T11:39:56.085;704201995217165443;255215;270936;288362;-606;
2022-04-25T11:39:56.103;704201995235430764;254950;270671;288071;-602;
2022-04-25T11:39:56.121;704201995253696085;254659;270334;287768;-653;
2022-04-25T11:39:56.140;704201995271961406;254341;270051;287413;-638;
2022-04-25T11:39:56.158;704201995290226727;254103;269844;287174;-585;
2022-04-25T11:39:56.176;704201995308492048;253864;269542;286877;-643;
2022-04-25T11:39:56.194;704201995326757369;253618;269304;286626;-662;
2022-04-25T11:39:56.213;704201995345022690;253429;269043;286389;-696;
2022-04-25T11:39:56.231;704201995363288011;253261;268881;286198;-655;
2022-04-25T11:39:56.249;704201995381553332;253100;268770;286048;-643;
2022-04-25T11:39:56.267;704201995399818653;252935;268655;285880;-680;
2022-04-25T11:39:56.286;704201995418083974;252942;268490;285771;-622;
2022-04-25T11:39:56.304;704201995436349295;252788;268462;285705;-608;
2022-04-25T11:39:56.322;704201995454615422;252732;268374;285595;-614;
2022-04-25T11:39:56.341;704201995472881545;252680;268242;285460;-592;
2022-04-25T11:39:56.359;704201995491147668;252563;268124;285360;-653;
2022-04-25T11:39:56.377;704201995509413791;252563;268074;285298;-596;
2022-04-25T11:39:56.395;704201995527679914;252425;267974;285218;-622;
2022-04-25T11:39:56.414;704201995545946037;252362;267885;285071;-673;
2022-04-25T11:39:56.432;704201995564212160;252257;267830;285020;-632;
2022-04-25T11:39:56.450;704201995582478283;252279;267752;284992;-641;
2022-04-25T11:39:56.468;704201995600744406;252210;267724;284969;-584;
2022-04-25T11:39:56.487;704201995619010529;252177;267643;284934;-598;
2022-04-25T11:39:56.505;704201995637276652;252156;267613;284875;-587;
2022-04-25T11:39:56.523;704201995655542775;252073;267595;284856;-611;
2022-04-25T11:39:56.541;704201995673808898;252096;267628;284833;-563;
2022-04-25T11:39:56.560;704201995692075021;252083;267612;284818;-649;
2022-04-25T11:39:56.578;704201995710341144;252085;267585;284793;-605;
2022-04-25T11:39:56.596;704201995728607267;252130;267638;284807;-603;
2022-04-25T11:39:56.614;704201995746873390;252143;267599;284797;-595;
2022-04-25T11:39:56.633;704201995765139513;252152;267602;284754;-669;
2022-04-25T11:39:56.651;704201995783405636;252160;267652;284776;-636;
2022-04-25T11:39:56.669;704201995801671759;252186;267679;284905;-622;
2022-04-25T11:39:56.688;704201995819937882;252296;267686;284923;-615;
2022-04-25T11:39:56.706;704201995838204005;252297;267723;284919;-568;
2022-04-25T11:39:56.724;704201995856470128;252343;267728;284931;-580;
2022-04-25T11:39:56.742;704201995874736251;252329;267711;284971;-669;
2022-04-25T11:39:56.761;704201995893002374;252357;267771;285009;-625;
2022-04-25T11:39:56.779;704201995911268497;252448;267804;285009;-672;
2022-04-25T11:39:56.797;704201995929534620;252517;267886;285187;-603;
2022-04-25T11:39:56.815;704201995947800743;252554;267938;285180;-661;
2022-04-25T11:39:56.834;704201995966066866;252584;267944;285159;-691;
2022-04-25T11:39:56.852;704201995984332989;252688;267994;285246;-612;
2022-04-25T11:39:56.870;704201996002599112;252632;268092;285304;-644;
2022-04-25T11:39:56.888;704201996020865235;252756;268179;285368;-680;
2022-04-25T11:39:56.907;704201996039131358;252866;268174;285486;-646;
2022-04-25T11:39:56.925;704201996057397481;252920;268233;285545;-659;
2022-04-25T11:39:56.943;704201996075663604;253022;268331;285616;-607;
2022-04-25T11:39:56.962;704201996093929727;253030;268290;285599;-677;
2022-04-25T11:39:56.980;704201996112195850;253150;268458;285766;-636;
2022-04-25T11:39:56.998;704201996130461973;253167;268497;285811;-593;
2022-04-25T11:39:57.016;704201996148728096;253239;268546;285842;-590;
2022-04-25T11:39:57.035;704201996166994219;253305;268608;285971;-656;
2022-04-25T11:39:57.053;704201996185260342;253456;268728;286054;-648;
2022-04-25T11:39:57.071;704201996203526465;253540;268783;286125;-619;
2022-04-25T11:39:57.089;704201996221792588;253739;268897;286281;-591;
2022-04-25T11:39:57.108;704201996240057611;253722;268877;286330;-681;
2022-04-25T11:39:57.126;704201996258322634;253842;268947;286356;-666;
2022-04-25T11:39:57.144;704201996276587657;253739;268945;286315;-619;
2022-04-25T11:39:57.162;704201996294852680;253639;268858;286198;-638;
2022-04-25T11:39:57.181;704201996313117703;253505;268687;286060;-652;
2022-04-25T11:39:57.199;704201996331382726;253253;268569;285808;-618;
2022-04-25T11:39:57.217;704201996349647749;252998;268270;285568;-637;
2022-04-25T11:39:57.236;704201996367912772;252717;268013;285193;-689;
2022-04-25T11:39:57.254;704201996386177795;252533;267822;285006;-662;
2022-04-25T11:39:57.272;704201996404442818;252305;267561;284718;-661;
2022-04-25T11:39:57.290;704201996422707841;251996;267296;284436;-658;
2022-04-25T11:39:57.309;704201996440972864;251768;267094;284183;-663;
2022-04-25T11:39:57.327;704201996459237887;251596;266790;283930;-638;
2022-04-25T11:39:57.345;704201996477502910;251392;266603;283635;-621;
2022-04-25T11:39:57.363;704201996495767933;251164;266416;283464;-661;
2022-04-25T11:39:57.382;704201996514032956;250998;266220;283275;-652;
2022-04-25T11:39:57.400;704201996532297979;250878;266034;283067;-687;
2022-04-25T11:39:57.418;704201996550563002;250737;265975;283010;-678;
2022-04-25T11:39:57.436;704201996568828025;250684;265934;282901;-645;
2022-04-25T11:39:57.455;704201996587093048;250635;265916;282875;-627;
2022-04-25T11:39:57.473;704201996605358071;250604;265791;282789;-600;
2022-04-25T11:39:57.491;704201996623623094;250532;265796;282736;-635;
2022-04-25T11:39:57.510;704201996641888117;250401;265671;282581;-673;
2022-04-25T11:39:57.528;704201996660153140;250449;265659;282604;-641;
2022-04-25T11:39:57.546;704201996678418163;250367;265556;282518;-679;
2022-04-25T11:39:57.564;704201996696683186;250361;265567;282516;-631;
2022-04-25T11:39:57.583;704201996714948209;250366;265581;282521;-646;
2022-04-25T11:39:57.601;704201996733213232;250332;265520;282500;-640;
2022-04-25T11:39:57.619;704201996751478255;250325;265429;282461;-625;
2022-04-25T11:39:57.637;704201996769743278;250348;265479;282496;-639;
2022-04-25T11:39:57.656;704201996788008301;250309;265378;282387;-618;
2022-04-25T11:39:57.674;704201996806273324;250327;265420;282395;-625;
2022-04-25T11:39:57.692;704201996824538347;250316;265477;282320;-630;
2022-04-25T11:39:57.710;704201996842803370;250381;265537;282452;-683;
2022-04-25T11:39:57.729;704201996861068393;250347;265515;282443;-663;
2022-04-25T11:39:57.747;704201996879333416;250443;265573;282569;-591;
2022-04-25T11:39:57.765;704201996897598439;250419;265554;282531;-657;
2022-04-25T11:39:57.783;704201996915863462;250477;265642;282604;-640;
2022-04-25T11:39:57.802;704201996934128485;250539;265672;282638;-637;
2022-04-25T11:39:57.820;704201996952393508;250529;265686;282648;-662;
2022-04-25T11:39:57.838;704201996970658531;250659;265796;282729;-664;
2022-04-25T11:39:57.857;704201996988923554;250689;265779;282727;-668;
2022-04-25T11:39:57.875;704201997007188675;250733;265800;282854;-644;
2022-04-25T11:39:57.893;704201997025453770;250792;265898;282897;-661;
2022-04-25T11:39:57.911;704201997043718865;250888;265978;282939;-715;
2022-04-25T11:39:57.930;704201997061983960;250943;266061;283038;-699;
2022-04-25T11:39:57.948;704201997080249055;250942;266090;283085;-668;
2022-04-25T11:39:57.966;704201997098514150;251071;266229;283180;-610;
2022-04-25T11:39:57.984;704201997116779245;251196;266326;283271;-623;
2022-04-25T11:39:58.003;704201997135044340;251236;266320;283291;-675;
2022-04-25T11:39:58.021;704201997153309435;251381;266468;283448;-651;
2022-04-25T11:39:58.039;704201997171574530;251402;266523;283474;-724;
2022-04-25T11:39:58.057;704201997189839625;251487;266569;283581;-720;
2022-04-25T11:39:58.076;704201997208104720;251557;266658;283620;-666;
2022-04-25T11:39:58.094;704201997226369815;251781;266775;283822;-661;
2022-04-25T11:39:58.112;704201997244634910;251810;266888;283894;-625;
2022-04-25T11:39:58.131;704201997262900005;251866;266961;283995;-661;
2022-04-25T11:39:58.149;704201997281165100;251987;267013;284095;-600;
2022-04-25T11:39:58.167;704201997299430195;252040;267116;284227;-661;
2022-04-25T11:39:58.185;704201997317695290;252185;267301;284370;-676;
2022-04-25T11:39:58.204;704201997335960385;252231;267321;284391;-711;
2022-04-25T11:39:58.222;704201997354225480;252335;267413;284468;-659;
2022-04-25T11:39:58.240;704201997372490575;252464;267531;284630;-659;
2022-04-25T11:39:58.258;704201997390755670;252600;267647;284706;-660;
2022-04-25T11:39:58.277;704201997409020765;252562;267673;284679;-678;
2022-04-25T11:39:58.295;704201997427285860;252486;267574;284656;-671;
2022-04-25T11:39:58.313;704201997445550955;252349;267458;284498;-635;
2022-04-25T11:39:58.331;704201997463816050;252278;267344;284356;-634;
2022-04-25T11:39:58.350;704201997482081145;252061;267141;284149;-630;
2022-04-25T11:39:58.368;704201997500346240;251802;266934;283887;-624;
2022-04-25T11:39:58.386;704201997518611335;251549;266832;283651;-708;
2022-04-25T11:39:58.404;704201997536876430;251413;266607;283415;-640;
2022-04-25T11:39:58.423;704201997555141525;251217;266390;283224;-609;
2022-04-25T11:39:58.441;704201997573406620;251026;266298;283026;-544;
2022-04-25T11:39:58.459;704201997591671715;250888;266049;282873;-631;
2022-04-25T11:39:58.478;704201997609936810;250640;265907;282635;-610;
2022-04-25T11:39:58.496;704201997628201905;250609;265782;282514;-637;
2022-04-25T11:39:58.514;704201997646467000;250480;265663;282395;-659;
2022-04-25T11:39:58.532;704201997664732095;250365;265560;282305;-680;
2022-04-25T11:39:58.551;704201997682997190;250364;265536;282233;-688;
2022-04-25T11:39:58.569;704201997701262285;250311;265537;282218;-664;
2022-04-25T11:39:58.587;704201997719527380;250346;265582;282255;-598;
2022-04-25T11:39:58.605;704201997737792475;250199;265499;282171;-568;
2022-04-25T11:39:58.624;704201997756057570;250205;265463;282152;-643;
2022-04-25T11:39:58.642;704201997774323963;250208;265433;282084;-679;
2022-04-25T11:39:58.660;704201997792590334;250211;265409;282102;-639;
2022-04-25T11:39:58.678;704201997810856705;250194;265421;282033;-627;
2022-04-25T11:39:58.697;704201997829123076;250206;265364;282112;-592;
2022-04-25T11:39:58.715;704201997847389447;250245;265462;282064;-635;
2022-04-25T11:39:58.733;704201997865655818;250224;265390;282039;-625;
2022-04-25T11:39:58.752;704201997883922189;250259;265422;282068;-583;
2022-04-25T11:39:58.770;704201997902188560;250246;265454;282066;-638;
2022-04-25T11:39:58.788;704201997920454931;250238;265549;282101;-620;
2022-04-25T11:39:58.806;704201997938721302;250246;265487;282080;-613;
2022-04-25T11:39:58.825;704201997956987673;250289;265497;282143;-649;
2022-04-25T11:39:58.843;704201997975254044;250369;265520;282188;-649;
2022-04-25T11:39:58.861;704201997993520415;250431;265604;282276;-714;
2022-04-25T11:39:58.879;704201998011786786;250462;265601;282297;-672;
2022-04-25T11:39:58.898;704201998030053157;250505;265691;282313;-724;
2022-04-25T11:39:58.916;704201998048319528;250568;265751;282479;-656;
2022-04-25T11:39:58.934;704201998066585899;250614;265831;282496;-652;
2022-04-25T11:39:58.952;704201998084852270;250693;265933;282595;-564;
2022-04-25T11:39:58.971;704201998103118641;250759;265973;282659;-620;
2022-04-25T11:39:58.989;704201998121385012;250824;266089;282757;-585;
2022-04-25T11:39:59.007;704201998139651383;250907;266125;282839;-660;
2022-04-25T11:39:59.026;704201998157917754;250967;266126;282899;-655;
2022-04-25T11:39:59.044;704201998176184125;251068;266301;283006;-675;
2022-04-25T11:39:59.062;704201998194450496;251078;266291;283077;-665;
2022-04-25T11:39:59.080;704201998212716867;251213;266398;283228;-656;
2022-04-25T11:39:59.099;704201998230983238;251288;266497;283275;-674;
2022-04-25T11:39:59.117;704201998249249609;251353;266573;283364;-692;
2022-04-25T11:39:59.135;704201998267515980;251478;266677;283429;-680;
2022-04-25T11:39:59.153;704201998285782351;251624;266802;283547;-617;
2022-04-25T11:39:59.172;704201998304048722;251668;266897;283669;-651;
2022-04-25T11:39:59.190;704201998322315093;251755;267004;283759;-669;
2022-04-25T11:39:59.208;704201998340581464;251851;267045;283839;-676;
2022-04-25T11:39:59.226;704201998358847835;251946;267136;283945;-663;
2022-04-25T11:39:59.245;704201998377114206;252053;267249;284121;-651;
2022-04-25T11:39:59.263;704201998395380577;252168;267338;284186;-675;
2022-04-25T11:39:59.281;704201998413646948;252246;267458;284308;-586;
2022-04-25T11:39:59.300;704201998431913319;252385;267571;284368;-674;
2022-04-25T11:39:59.318;704201998450179690;252475;267693;284497;-685;
2022-04-25T11:39:59.336;704201998468446061;252610;267859;284647;-664;
2022-04-25T11:39:59.354;704201998486712432;252704;267906;284794;-625;
2022-04-25T11:39:59.373;704201998504978803;252738;267912;284847;-699;
2022-04-25T11:39:59.391;704201998523245174;252852;267996;284982;-725;
2022-04-25T11:39:59.409;704201998541511545;252922;268060;285035;-699;
2022-04-25T11:39:59.427;704201998559777102;252892;268051;284985;-696;
2022-04-25T11:39:59.446;704201998578042633;252827;267876;284912;-677;
2022-04-25T11:39:59.464;704201998596308164;252661;267664;284681;-727;
2022-04-25T11:39:59.482;704201998614573695;252551;267447;284492;-644;
2022-04-25T11:39:59.500;704201998632839226;252354;267219;284203;-704;
2022-04-25T11:39:59.519;704201998651104757;252130;266882;283972;-710;
2022-04-25T11:39:59.537;704201998669370288;251904;266641;283719;-773;
2022-04-25T11:39:59.555;704201998687635819;251696;266440;283469;-696;
2022-04-25T11:39:59.574;704201998705901350;251544;266246;283239;-692;
2022-04-25T11:39:59.592;704201998724166881;251307;265903;282953;-709;
2022-04-25T11:39:59.610;704201998742432412;251076;265700;282710;-655;
2022-04-25T11:39:59.628;704201998760697943;250931;265498;282566;-646;
2022-04-25T11:39:59.647;704201998778963474;250780;265322;282324;-636;
2022-04-25T11:39:59.665;704201998797229005;250579;265159;282117;-625;
2022-04-25T11:39:59.683;704201998815494536;250535;265046;282004;-601;
2022-04-25T11:39:59.701;704201998833760067;250409;264942;281891;-560;
2022-04-25T11:39:59.720;704201998852025598;250396;264910;281800;-542;
2022-04-25T11:39:59.738;704201998870291129;250332;264867;281817;-507;
2022-04-25T11:39:59.756;704201998888556660;250283;264871;281660;-499;
2022-04-25T11:39:59.774;704201998906822191;250232;264743;281677;-487;
2022-04-25T11:39:59.793;704201998925087722;250182;264732;281604;-461;
2022-04-25T11:39:59.811;704201998943353253;250142;264676;281556;-504;
2022-04-25T11:39:59.829;704201998961618784;250210;264632;281580;-410;
2022-04-25T11:39:59.848;704201998979884315;250139;264659;281595;-409;
2022-04-25T11:39:59.866;704201998998149846;250262;264639;281612;-353;
2022-04-25T11:39:59.884;704201999016415377;250307;264654;281697;-247;
2022-04-25T11:39:59.902;704201999034680908;250345;264642;281800;-181;
2022-04-25T11:39:59.921;704201999052946439;250452;264668;281861;-103;
2022-04-25T11:39:59.939;704201999071211970;250562;264685;281972;-44;
2022-04-25T11:39:59.957;704201999089477501;250666;264750;282047;46;
2022-04-25T11:39:59.975;704201999107743032;250661;264839;282122;51;
2022-04-25T11:39:59.994;704201999126008563;250702;264903;282317;195;
2022-04-25T11:40:00.012;704201999144274094;250738;264995;282300;188;
2022-04-25T11:40:00.030;704201999162539625;250876;265103;282449;244;
2022-04-25T11:40:00.048;704201999180805156;250889;265257;282534;256;
2022-04-25T11:40:00.067;704201999199070687;250987;265378;282562;312;
2022-04-25T11:40:00.085;704201999217336218;251024;265519;282654;298;
2022-04-25T11:40:00.103;704201999235601749;251009;265685;282735;392;
2022-04-25T11:40:00.121;704201999253867280;251034;265793;282793;375;
2022-04-25T11:40:00.140;704201999272132811;251164;265865;282875;351;
2022-04-25T11:40:00.158;704201999290398342;251220;265990;282958;458;
2022-04-25T11:40:00.176;704201999308663873;251269;266044;283084;396;
2022-04-25T11:40:00.195;704201999326929318;251323;266188;283237;415;
2022-04-25T11:40:00.213;704201999345194740;251429;266164;283262;385;
2022-04-25T11:40:00.231;704201999363460162;251419;266277;283346;451;
2022-04-25T11:40:00.249;704201999381725584;251481;266385;283431;435;
2022-04-25T11:40:00.268;704201999399991006;251518;266452;283535;368;
2022-04-25T11:40:00.286;704201999418256428;251492;266486;283649;309;
2022-04-25T11:40:00.304;704201999436521850;251539;266541;283707;311;
2022-04-25T11:40:00.322;704201999454787272;251617;266654;283790;371;
2022-04-25T11:40:00.341;704201999473052694;251721;266718;283831;362;
2022-04-25T11:40:00.359;704201999491318116;251850;266735;283915;469;
2022-04-25T11:40:00.377;704201999509583538;251953;266869;284029;450;
2022-04-25T11:40:00.395;704201999527848960;251987;266960;284130;445;
2022-04-25T11:40:00.414;704201999546114382;252040;267043;284144;397;
2022-04-25T11:40:00.432;704201999564379804;252117;267084;284201;375;
2022-04-25T11:40:00.450;704201999582645226;252237;267228;284283;438;
2022-04-25T11:40:00.469;704201999600910648;252362;267296;284356;437;
2022-04-25T11:40:00.487;704201999619176070;252427;267354;284457;403;
2022-04-25T11:40:00.505;704201999637441492;252444;267386;284503;334;
2022-04-25T11:40:00.523;704201999655706914;252584;267588;284592;372;
2022-04-25T11:40:00.542;704201999673972336;252662;267661;284682;388;
2022-04-25T11:40:00.560;704201999692237758;252800;267739;284771;321;
2022-04-25T11:40:00.578;704201999710503180;252839;267734;284782;328;
2022-04-25T11:40:00.596;704201999728768602;252963;267887;284903;421;
2022-04-25T11:40:00.615;704201999747034024;252971;267875;284928;427;
2022-04-25T11:40:00.633;704201999765299446;252937;267832;284910;382;
2022-04-25T11:40:00.651;704201999783564868;252773;267754;284716;399;
2022-04-25T11:40:00.669;704201999801830290;252637;267622;284577;351;
2022-04-25T11:40:00.688;704201999820095712;252419;267384;284377;330;
2022-04-25T11:40:00.706;704201999838361134;252197;267142;284112;366;
2022-04-25T11:40:00.724;704201999856626556;251970;266953;283855;324;
2022-04-25T11:40:00.743;704201999874891978;251819;266723;283621;353;
2022-04-25T11:40:00.761;704201999893157400;251629;266608;283433;367;
2022-04-25T11:40:00.779;704201999911422822;251385;266416;283205;401;
2022-04-25T11:40:00.797;704201999929688244;251216;266247;283020;346;
2022-04-25T11:40:00.816;704201999947953666;251033;265995;282833;328;
2022-04-25T11:40:00.834;704201999966219088;250861;265766;282611;295;
2022-04-25T11:40:00.852;704201999984484510;250756;265638;282430;324;
2022-04-25T11:40:00.870;704202000002749932;250609;265558;282254;361;
2022-04-25T11:40:00.889;704202000021015354;250615;265505;282213;379;
2022-04-25T11:40:00.907;704202000039280776;250495;265381;282089;302;
2022-04-25T11:40:00.925;704202000057546198;250390;265276;282013;319;
2022-04-25T11:40:00.943;704202000075811620;250458;265275;281967;358;
2022-04-25T11:40:00.962;704202000094077485;250376;265163;281823;283;
2022-04-25T11:40:00.980;704202000112343340;250347;265087;281749;268;
2022-04-25T11:40:00.998;704202000130609195;250291;265010;281744;318;
2022-04-25T11:40:01.016;704202000148875050;250294;264994;281643;259;
2022-04-25T11:40:01.035;704202000167140905;250312;264900;281616;216;
2022-04-25T11:40:01.053;704202000185406760;250313;264882;281521;213;
2022-04-25T11:40:01.071;704202000203672615;250267;264902;281436;255;
2022-04-25T11:40:01.090;704202000221938470;250284;264858;281463;251;
2022-04-25T11:40:01.108;704202000240204325;250315;264823;281432;266;
2022-04-25T11:40:01.126;704202000258470180;250315;264799;281437;278;
2022-04-25T11:40:01.144;704202000276736035;250362;264847;281419;261;
2022-04-25T11:40:01.163;704202000295001890;250415;264834;281403;268;
2022-04-25T11:40:01.181;704202000313267745;250458;264874;281508;268;
2022-04-25T11:40:01.199;704202000331533600;250520;264951;281483;287;
2022-04-25T11:40:01.217;704202000349799455;250550;264956;281569;273;
2022-04-25T11:40:01.236;704202000368065310;250620;264925;281548;301;
2022-04-25T11:40:01.254;704202000386331165;250651;264936;281587;316;
2022-04-25T11:40:01.272;704202000404597020;250654;264930;281616;261;
2022-04-25T11:40:01.290;704202000422862875;250771;265060;281685;296;
2022-04-25T11:40:01.309;704202000441128730;250809;265045;281758;270;
2022-04-25T11:40:01.327;704202000459394585;250959;265160;281802;319;
2022-04-25T11:40:01.345;704202000477660440;250959;265163;281873;242;
2022-04-25T11:40:01.364;704202000495926295;251084;265169;281944;316;
2022-04-25T11:40:01.382;704202000514192150;251148;265209;281975;338;
2022-04-25T11:40:01.400;704202000532458005;251170;265299;282066;303;
2022-04-25T11:40:01.418;704202000550723860;251382;265390;282133;261;
2022-04-25T11:40:01.437;704202000568989715;251378;265366;282192;279;
2022-04-25T11:40:01.455;704202000587255570;251410;265418;282276;250;
2022-04-25T11:40:01.473;704202000605521425;251503;265566;282364;257;
2022-04-25T11:40:01.491;704202000623787280;251633;265578;282388;239;
2022-04-25T11:40:01.510;704202000642053135;251708;265687;282513;253;
2022-04-25T11:40:01.528;704202000660318990;251834;265828;282619;280;
2022-04-25T11:40:01.546;704202000678584845;251868;265846;282680;245;
2022-04-25T11:40:01.564;704202000696850700;251993;265922;282771;344;
2022-04-25T11:40:01.583;704202000715116555;252093;265924;282812;196;
2022-04-25T11:40:01.601;704202000733382410;252142;266085;282952;276;
2022-04-25T11:40:01.619;704202000751648265;252292;266148;283067;213;
2022-04-25T11:40:01.638;704202000769914120;252413;266248;283175;295;
2022-04-25T11:40:01.656;704202000788179975;252458;266329;283289;263;
2022-04-25T11:40:01.674;704202000806445830;252551;266458;283405;330;
2022-04-25T11:40:01.692;704202000824711685;252710;266531;283545;322;
2022-04-25T11:40:01.711;704202000842977540;252791;266571;283584;287;
2022-04-25T11:40:01.729;704202000861243395;252904;266674;283700;277;
2022-04-25T11:40:01.747;704202000879509250;252998;266772;283851;236;
2022-04-25T11:40:01.765;704202000897775076;253136;266883;283927;298;
2022-04-25T11:40:01.784;704202000916040880;253242;267039;284016;260;
2022-04-25T11:40:01.802;704202000934306684;253280;267071;284101;240;
2022-04-25T11:40:01.820;704202000952572488;253349;267133;284138;282;
2022-04-25T11:40:01.838;704202000970838292;253336;267068;284151;304;
2022-04-25T11:40:01.857;704202000989104096;253253;267035;284101;290;
2022-04-25T11:40:01.875;704202001007369900;253099;266845;283908;242;
2022-04-25T11:40:01.893;704202001025635704;253009;266710;283743;265;
2022-04-25T11:40:01.912;704202001043901508;252794;266553;283574;243;
2022-04-25T11:40:01.930;704202001062167312;252678;266434;283534;265;
2022-04-25T11:40:01.948;704202001080433116;252473;266251;283273;233;
2022-04-25T11:40:01.966;704202001098698920;252355;266125;283073;264;
2022-04-25T11:40:01.985;704202001116964724;252220;265967;282931;266;
2022-04-25T11:40:02.003;704202001135230528;252052;265793;282698;249;
2022-04-25T11:40:02.021;704202001153496332;251948;265762;282660;224;
2022-04-25T11:40:02.039;704202001171762136;251879;265622;282471;275;
2022-04-25T11:40:02.058;704202001190027940;251711;265516;282320;250;
2022-04-25T11:40:02.076;704202001208293744;251668;265427;282225;195;
2022-04-25T11:40:02.094;704202001226559548;251608;265428;282252;310;
2022-04-25T11:40:02.112;704202001244825352;251614;265368;282175;284;
2022-04-25T11:40:02.131;704202001263091156;251526;265237;282056;283;
2022-04-25T11:40:02.149;704202001281356960;251577;265258;282079;244;
2022-04-25T11:40:02.167;704202001299622764;251491;265176;282078;262;
2022-04-25T11:40:02.186;704202001317888568;251558;265196;282066;322;
2022-04-25T11:40:02.204;704202001336154372;251522;265242;281999;281;
2022-04-25T11:40:02.222;704202001354420176;251515;265207;281994;227;
2022-04-25T11:40:02.240;704202001372685980;251523;265154;281987;288;
2022-04-25T11:40:02.259;704202001390951784;251544;265183;282034;241;
2022-04-25T11:40:02.277;704202001409217588;251565;265161;282040;244;
2022-04-25T11:40:02.295;704202001427483392;251612;265166;281999;243;
2022-04-25T11:40:02.313;704202001445749196;251569;265148;282040;262;
2022-04-25T11:40:02.332;704202001464015000;251674;265124;281971;243;
2022-04-25T11:40:02.350;704202001482280804;251638;265147;282074;248;
2022-04-25T11:40:02.368;704202001500546608;251651;265221;282123;240;
2022-04-25T11:40:02.386;704202001518812412;251741;265223;282136;236;
2022-04-25T11:40:02.405;704202001537078216;251839;265329;282192;290;
2022-04-25T11:40:02.423;704202001555344020;251817;265341;282160;176;
2022-04-25T11:40:02.441;704202001573609824;251853;265390;282255;265;
2022-04-25T11:40:02.459;704202001591875628;251927;265454;282314;224;
2022-04-25T11:40:02.478;704202001610141432;252001;265518;282340;213;
2022-04-25T11:40:02.496;704202001628407236;252059;265600;282357;205;
2022-04-25T11:40:02.514;704202001646673820;252196;265686;282527;217;
2022-04-25T11:40:02.533;704202001664940368;252187;265644;282517;225;
2022-04-25T11:40:02.551;704202001683206916;252291;265722;282630;247;
2022-04-25T11:40:02.569;704202001701473464;252394;265792;282705;231;
2022-04-25T11:40:02.587;704202001719740012;252507;265884;282770;238;
2022-04-25T11:40:02.606;704202001738006560;252567;265970;282874;249;
2022-04-25T11:40:02.624;704202001756273108;252722;266069;283029;336;
2022-04-25T11:40:02.642;704202001774539656;252724;266167;283068;292;
2022-04-25T11:40:02.660;704202001792806204;252846;266202;283124;259;
2022-04-25T11:40:02.679;704202001811072752;252906;266270;283189;277;
2022-04-25T11:40:02.697;704202001829339300;253010;266393;283328;313;
2022-04-25T11:40:02.715;704202001847605848;253175;266474;283393;328;
2022-04-25T11:40:02.733;704202001865872396;253246;266558;283548;298;
2022-04-25T11:40:02.752;704202001884138944;253373;266666;283624;265;
2022-04-25T11:40:02.770;704202001902405492;253421;266728;283647;235;
2022-04-25T11:40:02.788;704202001920672040;253592;266795;283820;308;
2022-04-25T11:40:02.807;704202001938938588;253707;266931;283949;364;
2022-04-25T11:40:02.825;704202001957205136;253721;266987;283952;288;
2022-04-25T11:40:02.843;704202001975471684;253815;267088;284052;256;
2022-04-25T11:40:02.861;704202001993738232;253912;267133;284282;292;
2022-04-25T11:40:02.880;704202002012004780;254005;267245;284291;229;
2022-04-25T11:40:02.898;704202002030271328;254101;267319;284411;196;
2022-04-25T11:40:02.916;704202002048537876;254239;267386;284552;243;
2022-04-25T11:40:02.934;704202002066804424;254364;267547;284698;303;
2022-04-25T11:40:02.953;704202002085070972;254478;267614;284763;242;
2022-04-25T11:40:02.971;704202002103337520;254579;267737;284907;285;
2022-04-25T11:40:02.989;704202002121604068;254714;267877;285050;270;
2022-04-25T11:40:03.007;704202002139870616;254782;267932;285086;273;
2022-04-25T11:40:03.026;704202002158137164;254890;267976;285187;250;
2022-04-25T11:40:03.044;704202002176403712;254899;268063;285231;260;
2022-04-25T11:40:03.062;704202002194670260;254930;268078;285267;315;
2022-04-25T11:40:03.081;704202002212936808;254860;267969;285171;349;
2022-04-25T11:40:03.099;704202002231203356;254641;267826;285003;327;
2022-04-25T11:40:03.117;704202002249469904;254512;267685;284844;317;
2022-04-25T11:40:03.135;704202002267736452;254362;267574;284665;297;
2022-04-25T11:40:03.154;704202002286003000;254237;267369;284515;251;
2022-04-25T11:40:03.172;704202002304269548;254101;267253;284355;286;
2022-04-25T11:40:03.190;704202002322536096;253904;267104;284169;265;
2022-04-25T11:40:03.208;704202002340802644;253761;266978;284001;208;
2022-04-25T11:40:03.227;704202002359069192;253656;266855;283876;231;
2022-04-25T11:40:03.245;704202002377335740;253506;266783;283725;264;
2022-04-25T11:40:03.263;704202002395602288;253460;266599;283553;273;
2022-04-25T11:40:03.281;704202002413868872;253380;266547;283510;294;
2022-04-25T11:40:03.300;704202002432135420;253232;266485;283379;266;
2022-04-25T11:40:03.318;704202002450401968;253239;266451;283371;287;
2022-04-25T11:40:03.336;704202002468668516;253152;266409;283248;215;
2022-04-25T11:40:03.355;704202002486935064;253224;266448;283370;302;
2022-04-25T11:40:03.373;704202002505201612;253194;266416;283251;277;
2022-04-25T11:40:03.391;704202002523468160;253161;266356;283267;209;
2022-04-25T11:40:03.409;704202002541734708;253161;266402;283298;247;
2022-04-25T11:40:03.428;704202002560001256;253118;266352;283184;217;
2022-04-25T11:40:03.446;704202002578267804;253174;266329;283184;267;
2022-04-25T11:40:03.464;704202002596534352;253150;266275;283180;235;
2022-04-25T11:40:03.482;704202002614800900;253180;266388;283214;181;
2022-04-25T11:40:03.501;704202002633067448;253143;266330;283243;246;
2022-04-25T11:40:03.519;704202002651333996;253229;266433;283239;291;
2022-04-25T11:40:03.537;704202002669600544;253203;266442;283213;240;
2022-04-25T11:40:03.555;704202002687867092;253243;266399;283296;277;
2022-04-25T11:40:03.574;704202002706133640;253247;266470;283356;279;
2022-04-25T11:40:03.592;704202002724400188;253307;266496;283353;262;
2022-04-25T11:40:03.610;704202002742666736;253396;266555;283397;251;
2022-04-25T11:40:03.629;704202002760933284;253379;266545;283423;273;
2022-04-25T11:40:03.647;704202002779199832;253467;266601;283420;257;
2022-04-25T11:40:03.665;704202002797466380;253506;266677;283510;294;
2022-04-25T11:40:03.683;704202002815732928;253536;266693;283524;202;
2022-04-25T11:40:03.702;704202002833999476;253645;266763;283618;265;
2022-04-25T11:40:03.720;704202002852266024;253675;266801;283757;302;
2022-04-25T11:40:03.738;704202002870532572;253813;266887;283789;295;
2022-04-25T11:40:03.756;704202002888799120;253830;266963;283861;255;
2022-04-25T11:40:03.775;704202002907065668;253862;266962;283863;262;
2022-04-25T11:40:03.793;704202002925332216;253999;267072;283978;298;
2022-04-25T11:40:03.811;704202002943598764;254029;267227;284079;246;
2022-04-25T11:40:03.829;704202002961865312;254103;267254;284160;336;
2022-04-25T11:40:03.848;704202002980131860;254204;267348;284211;253;
2022-04-25T11:40:03.866;704202002998398408;254248;267347;284298;262;
2022-04-25T11:40:03.884;704202003016664956;254329;267416;284361;261;
2022-04-25T11:40:03.903;704202003034931504;254403;267457;284450;230;
2022-04-25T11:40:03.921;704202003053198052;254532;267636;284589;247;
2022-04-25T11:40:03.939;704202003071464600;254579;267671;284664;265;
2022-04-25T11:40:03.957;704202003089731148;254659;267791;284740;238;
2022-04-25T11:40:03.976;704202003107997696;254808;267808;284859;262;
2022-04-25T11:40:03.994;704202003126264244;254903;267969;284961;257;
2022-04-25T11:40:04.012;704202003144530792;255003;268065;285068;249;
2022-04-25T11:40:04.030;704202003162797340;255094;268082;285141;259;
2022-04-25T11:40:04.049;704202003181063888;255172;268173;285194;205;
2022-04-25T11:40:04.067;704202003199329760;255317;268310;285302;283;
2022-04-25T11:40:04.085;704202003217595631;255370;268361;285393;265;
2022-04-25T11:40:04.103;704202003235861502;255456;268527;285551;273;
2022-04-25T11:40:04.122;704202003254127373;255531;268633;285631;262;
2022-04-25T11:40:04.140;704202003272393244;255650;268695;285780;291;
2022-04-25T11:40:04.158;704202003290659115;255767;268785;285889;310;
2022-04-25T11:40:04.177;704202003308924986;255837;268851;286008;260;
2022-04-25T11:40:04.195;704202003327190857;255907;268946;286081;260;
2022-04-25T11:40:04.213;704202003345456728;256026;269067;286157;277;
2022-04-25T11:40:04.231;704202003363722599;255989;269012;286129;291;
2022-04-25T11:40:04.250;704202003381988470;255930;269000;286063;349;
2022-04-25T11:40:04.268;704202003400254341;255835;268836;285926;280;
2022-04-25T11:40:04.286;704202003418520212;255688;268773;285802;256;
2022-04-25T11:40:04.304;704202003436786083;255556;268677;285691;243;
2022-04-25T11:40:04.323;704202003455051954;255404;268482;285526;280;
2022-04-25T11:40:04.341;704202003473317825;255279;268420;285367;257;
2022-04-25T11:40:04.359;704202003491583696;255145;268284;285243;300;
2022-04-25T11:40:04.377;704202003509849567;254979;268094;285072;248;
2022-04-25T11:40:04.396;704202003528115438;254804;267981;284875;279;
2022-04-25T11:40:04.414;704202003546381309;254697;267916;284777;293;
2022-04-25T11:40:04.432;704202003564647180;254561;267775;284569;219;
2022-04-25T11:40:04.451;704202003582913051;254450;267686;284534;218;
2022-04-25T11:40:04.469;704202003601178922;254370;267605;284431;253;
2022-04-25T11:40:04.487;704202003619444793;254358;267526;284356;234;
2022-04-25T11:40:04.505;704202003637710664;254350;267551;284371;212;
2022-04-25T11:40:04.524;704202003655976535;254368;267520;284358;292;
2022-04-25T11:40:04.542;704202003674242406;254307;267467;284265;300;
2022-04-25T11:40:04.560;704202003692508277;254270;267482;284258;252;
2022-04-25T11:40:04.578;704202003710774148;254345;267581;284285;330;
2022-04-25T11:40:04.597;704202003729040019;254251;267479;284220;241;
2022-04-25T11:40:04.615;704202003747305890;254261;267502;284239;274;
2022-04-25T11:40:04.633;704202003765571761;254218;267462;284255;206;
2022-04-25T11:40:04.651;704202003783837632;254199;267433;284207;207;
2022-04-25T11:40:04.670;704202003802103503;254207;267435;284164;286;
2022-04-25T11:40:04.688;704202003820369374;254171;267399;284165;227;
2022-04-25T11:40:04.706;704202003838635245;254253;267482;284224;255;
2022-04-25T11:40:04.725;704202003856901116;254326;267555;284282;274;
2022-04-25T11:40:04.743;704202003875166987;254306;267511;284301;290;
2022-04-25T11:40:04.761;704202003893432858;254276;267566;284285;277;
2022-04-25T11:40:04.779;704202003911698729;254338;267543;284307;198;
2022-04-25T11:40:04.798;704202003929964600;254325;267630;284378;196;
2022-04-25T11:40:04.816;704202003948230471;254328;267639;284368;173;
2022-04-25T11:40:04.834;704202003966496342;254358;267653;284383;193;
2022-04-25T11:40:04.852;704202003984762213;254427;267732;284469;184;
2022-04-25T11:40:04.871;704202004003028084;254446;267752;284551;204;
2022-04-25T11:40:04.889;704202004021295429;254541;267799;284587;226;
2022-04-25T11:40:04.907;704202004039562740;254598;267886;284606;269;
2022-04-25T11:40:04.925;704202004057830051;254692;267935;284733;250;
2022-04-25T11:40:04.944;704202004076097362;254758;268031;284744;270;
2022-04-25T11:40:04.962;704202004094364673;254815;268070;284824;233;
2022-04-25T11:40:04.980;704202004112631984;254867;268103;284854;233;
2022-04-25T11:40:04.999;704202004130899295;254973;268230;285018;269;
2022-04-25T11:40:05.017;704202004149166606;255093;268290;285044;263;
2022-04-25T11:40:05.035;704202004167433917;255107;268331;285105;276;
2022-04-25T11:40:05.053;704202004185701228;255166;268397;285157;247;
2022-04-25T11:40:05.072;704202004203968539;255281;268385;285293;261;
2022-04-25T11:40:05.090;704202004222235850;255360;268543;285372;326;
2022-04-25T11:40:05.108;704202004240503161;255477;268651;285459;299;
2022-04-25T11:40:05.126;704202004258770472;255525;268672;285525;249;
2022-04-25T11:40:05.145;704202004277037783;255556;268734;285548;277;
2022-04-25T11:40:05.163;704202004295305094;255598;268798;285632;276;
2022-04-25T11:40:05.181;704202004313572405;255708;268953;285758;274;
2022-04-25T11:40:05.199;704202004331839716;255764;268973;285856;294;
2022-04-25T11:40:05.218;704202004350107027;255883;269079;285916;298;
2022-04-25T11:40:05.236;704202004368374338;255943;269114;285992;243;
2022-04-25T11:40:05.254;704202004386641649;256018;269154;286138;267;
2022-04-25T11:40:05.273;704202004404908960;256120;269257;286220;240;
2022-04-25T11:40:05.291;704202004423176271;256266;269392;286378;245;
2022-04-25T11:40:05.309;704202004441443582;256352;269550;286476;267;
2022-04-25T11:40:05.327;704202004459710893;256362;269531;286450;258;
2022-04-25T11:40:05.346;704202004477978204;256461;269598;286560;239;
2022-04-25T11:40:05.364;704202004496245515;256554;269694;286599;248;
2022-04-25T11:40:05.382;704202004514512826;256554;269751;286663;236;
2022-04-25T11:40:05.400;704202004532780137;256471;269706;286660;241;
2022-04-25T11:40:05.419;704202004551047448;256336;269588;286482;256;
2022-04-25T11:40:05.437;704202004569314759;256276;269510;286402;273;
2022-04-25T11:40:05.455;704202004587582070;256116;269342;286204;189;
2022-04-25T11:40:05.473;704202004605849381;256022;269259;286071;257;
2022-04-25T11:40:05.492;704202004624116692;255803;269116;285940;274;
2022-04-25T11:40:05.510;704202004642384003;255669;269047;285749;300;
2022-04-25T11:40:05.528;704202004660651314;255505;268889;285578;279;
2022-04-25T11:40:05.547;704202004678918625;255352;268730;285452;227;
2022-04-25T11:40:05.565;704202004697185936;255251;268639;285306;286;
2022-04-25T11:40:05.583;704202004715453247;255163;268526;285239;221;
2022-04-25T11:40:05.601;704202004733720558;255040;268393;285031;225;
2022-04-25T11:40:05.620;704202004751986606;254971;268380;284971;257;
2022-04-25T11:40:05.638;704202004770252646;254884;268317;284949;247;
2022-04-25T11:40:05.656;704202004788518686;254815;268212;284877;196;
2022-04-25T11:40:05.674;704202004806784726;254828;268265;284831;292;
2022-04-25T11:40:05.693;704202004825050766;254805;268208;284890;283;
2022-04-25T11:40:05.711;704202004843316806;254753;268250;284850;274;
2022-04-25T11:40:05.729;704202004861582846;254819;268230;284842;286;
2022-04-25T11:40:05.747;704202004879848886;254825;268237;284802;226;
2022-04-25T11:40:05.766;704202004898114926;254820;268173;284739;205;
2022-04-25T11:40:05.784;704202004916380966;254766;268261;284746;270;
2022-04-25T11:40:05.802;704202004934647006;254828;268249;284745;329;
2022-04-25T11:40:05.821;704202004952913046;254771;268210;284756;258;
2022-04-25T11:40:05.839;704202004971179086;254724;268206;284713;266;
2022-04-25T11:40:05.857;704202004989445126;254691;268193;284744;251;
2022-04-25T11:40:05.875;704202005007711166;254728;268176;284778;310;
2022-04-25T11:40:05.894;704202005025977206;254746;268229;284765;245;
2022-04-25T11:40:05.912;704202005044243246;254779;268253;284821;270;
2022-04-25T11:40:05.930;704202005062509286;254794;268287;284791;268;
2022-04-25T11:40:05.948;704202005080775326;254829;268331;284865;265;
2022-04-25T11:40:05.967;704202005099041366;254833;268332;284902;277;
2022-04-25T11:40:05.985;704202005117307406;254928;268404;284922;245;
2022-04-25T11:40:06.003;704202005135573446;254982;268470;284989;273;
2022-04-25T11:40:06.021;704202005153839486;255011;268497;284998;259;
2022-04-25T11:40:06.040;704202005172105526;255050;268520;285103;257;
2022-04-25T11:40:06.058;704202005190371566;255052;268558;285125;243;
2022-04-25T11:40:06.076;704202005208637606;255096;268626;285228;245;
2022-04-25T11:40:06.095;704202005226903646;255206;268734;285241;238;
2022-04-25T11:40:06.113;704202005245169686;255207;268757;285277;181;
2022-04-25T11:40:06.131;704202005263435726;255285;268744;285300;236;
2022-04-25T11:40:06.149;704202005281701766;255349;268849;285431;250;
2022-04-25T11:40:06.168;704202005299967806;255434;268920;285433;255;
2022-04-25T11:40:06.186;704202005318233846;255547;269027;285581;332;
2022-04-25T11:40:06.204;704202005336499886;255508;269070;285635;278;
2022-04-25T11:40:06.222;704202005354765926;255592;269117;285705;258;
2022-04-25T11:40:06.241;704202005373031966;255750;269224;285865;313;
2022-04-25T11:40:06.259;704202005391298006;255869;269344;285930;385;
2022-04-25T11:40:06.277;704202005409564046;255892;269379;285992;326;
2022-04-25T11:40:06.295;704202005427830086;255929;269378;286132;293;
2022-04-25T11:40:06.314;704202005446096126;256008;269488;286143;276;
2022-04-25T11:40:06.332;704202005464362166;256019;269505;286266;332;
2022-04-25T11:40:06.350;704202005482628206;256163;269630;286318;336;
2022-04-25T11:40:06.369;704202005500894246;256219;269707;286404;311;
2022-04-25T11:40:06.387;704202005519160286;256257;269781;286494;280;
2022-04-25T11:40:06.405;704202005537426326;256393;269834;286650;300;
2022-04-25T11:40:06.423;704202005555692366;256457;269929;286663;296;
2022-04-25T11:40:06.442;704202005573960204;256492;270071;286740;321;
2022-04-25T11:40:06.460;704202005592228024;256583;270071;286849;293;
2022-04-25T11:40:06.478;704202005610495844;256640;270105;286936;308;
2022-04-25T11:40:06.496;704202005628763664;256692;270173;286971;296;
2022-04-25T11:40:06.515;704202005647031484;256707;270153;286970;277;
2022-04-25T11:40:06.533;704202005665299304;256588;270051;286859;274;
2022-04-25T11:40:06.551;704202005683567124;256444;269994;286765;283;
2022-04-25T11:40:06.569;704202005701834944;256309;269907;286650;286;
2022-04-25T11:40:06.588;704202005720102764;256170;269762;286496;305;
2022-04-25T11:40:06.606;704202005738370584;256096;269621;286344;226;
2022-04-25T11:40:06.624;704202005756638404;255991;269587;286248;292;
2022-04-25T11:40:06.643;704202005774906224;255786;269496;286042;352;
2022-04-25T11:40:06.661;704202005793174044;255632;269291;285944;288;
2022-04-25T11:40:06.679;704202005811441864;255572;269290;285892;314;
2022-04-25T11:40:06.697;704202005829709684;255435;269118;285691;302;
2022-04-25T11:40:06.716;704202005847977504;255357;269070;285657;302;
2022-04-25T11:40:06.734;704202005866245324;255307;269093;285612;250;
2022-04-25T11:40:06.752;704202005884513144;255308;268996;285597;308;
2022-04-25T11:40:06.770;704202005902780964;255192;268987;285519;229;
2022-04-25T11:40:06.789;704202005921048784;255116;268993;285476;285;
2022-04-25T11:40:06.807;704202005939316604;255090;268930;285426;230;
2022-04-25T11:40:06.825;704202005957584424;255250;268975;285491;316;
2022-04-25T11:40:06.843;704202005975852244;255164;268956;285504;293;
2022-04-25T11:40:06.862;704202005994120064;255188;268919;285376;290;
2022-04-25T11:40:06.880;704202006012387884;255213;268916;285389;244;
2022-04-25T11:40:06.898;704202006030655704;255165;268920;285462;273;
2022-04-25T11:40:06.917;704202006048923524;255188;268979;285450;232;
2022-04-25T11:40:06.935;704202006067191344;255189;269047;285523;260;
2022-04-25T11:40:06.953;704202006085459164;255252;269069;285529;321;
2022-04-25T11:40:06.971;704202006103726984;255120;268974;285462;207;
2022-04-25T11:40:06.990;704202006121994804;255241;269036;285507;238;
2022-04-25T11:40:07.008;704202006140262624;255268;269068;285598;250;
2022-04-25T11:40:07.026;704202006158530444;255297;269065;285545;226;
2022-04-25T11:40:07.044;704202006176798264;255370;269155;285636;285;
2022-04-25T11:40:07.063;704202006195066084;255422;269192;285715;224;
2022-04-25T11:40:07.081;704202006213333904;255514;269312;285822;276;
2022-04-25T11:40:07.099;704202006231601724;255524;269301;285754;190;
2022-04-25T11:40:07.117;704202006249869544;255562;269416;285986;248;
2022-04-25T11:40:07.136;704202006268137364;255585;269342;285886;199;
2022-04-25T11:40:07.154;704202006286405184;255641;269455;285946;197;
2022-04-25T11:40:07.172;704202006304673004;255757;269579;286148;281;
2022-04-25T11:40:07.191;704202006322940824;255747;269604;286155;201;
2022-04-25T11:40:07.209;704202006341207408;255890;269584;286211;279;
2022-04-25T11:40:07.227;704202006359473956;255928;269706;286317;218;
2022-04-25T11:40:07.245;704202006377740504;255989;269789;286377;240;
2022-04-25T11:40:07.264;704202006396007052;256052;269776;286455;210;
2022-04-25T11:40:07.282;704202006414273600;256087;269911;286549;177;
2022-04-25T11:40:07.300;704202006432540148;256302;270009;286660;277;
2022-04-25T11:40:07.318;704202006450806696;256374;270035;286707;233;
2022-04-25T11:40:07.337;704202006469073244;256421;270095;286758;239;
2022-04-25T11:40:07.355;704202006487339792;256523;270222;286865;218;
2022-04-25T11:40:07.373;704202006505606340;256582;270247;286978;253;
2022-04-25T11:40:07.391;704202006523872888;256661;270406;287070;230;
