-0.043
-0.045
-0.065
-0.079
-0.069
-0.071
-0.094
-0.085
-0.072
-0.092
-0.095
-0.072
-0.073
-0.086
-0.078
-0.073
-0.085
-0.079
-0.063
-0.074
-0.075
-0.062
-0.064
-0.078
-0.061
-0.049
-0.063
-0.062
-0.037
-0.054
-0.06
-0.046
-0.044
-0.061
-0.051
-0.04
-0.059
-0.057
-0.036
-0.044
-0.059
-0.049
-0.047
-0.057
-0.052
-0.042
-0.06
-0.06
-0.041
-0.045
-0.056
-0.04
-0.03
-0.031
-0.007
0.024
0.033
0.047
0.061
0.053
0.062
0.082
0.085
0.08
0.079
0.079
0.047
0.019
0.009
-0.005
-0.032
-0.024
-0.037
-0.073
-0.083
-0.065
-0.084
-0.094
-0.087
-0.085
-0.098
-0.087
-0.078
-0.095
-0.092
-0.077
-0.084
-0.086
-0.056
-0.046
-0.049
-0.029
0.029
0.093
0.243
0.404
0.289
0.107
0.011
-0.113
-0.176
-0.187
-0.249
-0.298
-0.252
-0.133
-0.072
-0.065
-0.055
-0.045
-0.058
-0.05
-0.034
-0.039
-0.035
-0.009
-0.008
-0.022
0.002
0.019
0.011
0.009
0.034
0.027
0.03
0.043
0.045
0.034
0.043
0.055
0.042
0.052
0.07
0.061
0.042
0.07
0.085
0.078
0.089
0.11
0.108
0.114
0.138
0.143
0.141
0.164
0.175
0.161
0.177
0.191
0.18
0.17
0.185
0.181
0.15
0.146
0.134
0.099
0.073
0.062
0.025
-0.007
-0.012
-0.026
-0.059
-0.05
-0.048
-0.072
-0.075
-0.058
-0.071
-0.076
-0.07
-0.069
-0.086
-0.074
-0.062
-0.077
-0.078
-0.059
-0.06
-0.079
-0.066
-0.063
-0.08
-0.071
-0.049
-0.061
-0.061
-0.043
-0.044
-0.057
-0.042
-0.035
-0.054
-0.045
-0.034
-0.048
-0.058
-0.043
-0.043
-0.058
-0.046
-0.04
-0.053
-0.047
-0.031
-0.044
-0.054
-0.042
-0.037
-0.054
-0.045
-0.031
-0.042
-0.045
-0.019
-0.016
-0.011
0.023
0.038
0.035
0.061
0.068
0.052
0.077
0.097
0.093
0.088
0.096
0.086
0.047
0.02
0.011
-0.008
-0.017
-0.013
-0.035
-0.065
-0.061
-0.062
-0.084
-0.085
-0.07
-0.078
-0.08
-0.07
-0.072
-0.087
-0.074
-0.057
-0.079
-0.065
-0.038
-0.039
-0.047
-0.01
0.056
0.155
0.372
0.442
0.327
0.22
0.139
0.004
-0.022
-0.086
-0.205
-0.287
-0.235
-0.133
-0.089
-0.076
-0.055
-0.052
-0.061
-0.046
-0.04
-0.052
-0.036
-0.02
-0.036
-0.032
-0.006
-0.01
-0.024
-0.002
0.013
0.003
0.012
0.028
0.018
0.021
0.034
0.044
0.032
0.05
0.064
0.042
0.05
0.079
0.07
0.068
0.09
0.108
0.099
0.114
0.132
0.13
0.14
0.166
0.162
0.152
0.17
0.173
0.154
0.159
0.174
0.148
0.131
0.127
0.107
0.072
0.064
0.047
0.013
-0.005
-0.004
-0.031
-0.046
-0.039
-0.052
-0.071
-0.064
-0.06
-0.08
-0.077
-0.059
-0.065
-0.074
-0.054
-0.058
-0.068
-0.053
-0.042
-0.063
-0.062
-0.037
-0.045
-0.056
-0.041
-0.034
-0.049
-0.033
-0.028
-0.041
-0.041
-0.023
-0.035
-0.043
-0.025
-0.021
-0.04
-0.028
-0.008
-0.02
-0.025
-0.011
-0.018
-0.031
-0.016
-0.01
-0.027
-0.029
-0.012
-0.021
-0.026
-0.01
-0.004
-0.013
0.01
0.029
0.034
0.055
0.088
0.076
0.06
0.106
0.114
0.088
0.11
0.124
0.085
0.07
0.063
0.03
-0.002
0.008
0.001
-0.029
-0.037
-0.035
-0.055
-0.064
-0.053
-0.067
-0.08
-0.07
-0.063
-0.084
-0.076
-0.061
-0.073
-0.078
-0.057
-0.048
-0.062
-0.042
-0.023
0.001
0.097
0.29
0.454
0.384
0.26
0.146
-0.013
-0.05
-0.072
-0.187
-0.26
-0.246
-0.167
-0.103
-0.055
-0.05
-0.055
-0.039
-0.024
-0.046
-0.04
-0.009
-0.011
-0.02
-0.001
0.015
0.009
0.022
0.035
0.025
0.03
0.054
0.052
0.039
0.06
0.071
0.051
0.063
0.084
0.073
0.066
0.087
0.089
0.079
0.095
0.1
0.096
0.107
0.133
0.13
0.13
0.154
0.159
0.145
0.16
0.175
0.158
0.161
0.17
0.161
0.143
0.151
0.131
0.094
0.079
0.069
0.024
-0.002
-0.003
-0.026
-0.054
-0.052
-0.06
-0.088
-0.08
-0.073
-0.093
-0.102
-0.084
-0.091
-0.102
-0.082
-0.075
-0.096
-0.095
-0.072
-0.084
-0.086
-0.064
-0.063
-0.084
-0.068
-0.064
-0.083
-0.083
-0.063
-0.071
-0.076
-0.059
-0.054
-0.07
-0.061
-0.044
-0.064
-0.063
-0.036
-0.048
-0.059
-0.037
-0.037
-0.058
-0.05
-0.035
-0.051
-0.055
-0.041
-0.044
-0.053
-0.039
-0.033
-0.053
-0.041
-0.031
-0.046
-0.047
-0.013
-0.008
-0.015
0.017
0.045
0.044
0.04
0.056
0.066
0.058
0.073
0.083
0.059
0.055
0.042
-0.003
-0.025
-0.016
-0.038
-0.057
-0.055
-0.07
-0.091
-0.083
-0.076
-0.101
-0.098
-0.081
-0.089
-0.108
-0.09
-0.087
-0.096
-0.089
-0.071
-0.078
-0.076
-0.052
-0.046
-0.044
0.028
0.125
0.287
0.406
0.276
0.093
-0.042
-0.157
-0.185
-0.213
-0.259
-0.272
-0.223
-0.125
-0.052
-0.059
-0.071
-0.046
-0.04
-0.056
-0.035
-0.021
-0.032
-0.027
0.002
-0.002
0.001
0.026
0.031
0.017
0.038
0.053
0.034
0.037
0.065
0.063
0.042
0.064
0.072
0.062
0.075
0.086
0.068
0.072
0.102
0.098
0.088
0.11
0.126
0.112
0.123
0.153
0.152
0.151
0.179
0.173
0.157
0.176
0.189
0.18
0.178
0.186
0.165
0.13
0.124
0.094
0.045
0.039
0.024
-0.011
-0.032
-0.027
-0.052
-0.074
-0.064
-0.07
-0.092
-0.077
-0.046
-0.064
-0.076
-0.08
-0.088
-0.107
-0.086
-0.083
-0.1
-0.093
-0.082
-0.093
-0.089
-0.068
-0.078
-0.096
-0.074
-0.058
-0.089
-0.086
-0.061
-0.065
-0.08
-0.054
-0.049
-0.06
-0.023
-0.011
-0.057
-0.065
-0.048
-0.059
-0.046
-0.013
-0.033
-0.089
-0.07
-0.046
-0.056
-0.049
-0.033
-0.045
-0.056
-0.032
-0.028
-0.051
-0.037
-0.016
-0.034
-0.036
-0.014
-0.026
-0.045
-0.016
0.003
0.001
0.03
0.062
0.058
0.045
0.074
0.093
0.074
0.107
0.122
0.066
0.086
0.109
0.028
0.007
0.006
-0.002
-0.057
-0.036
-0.026
-0.066
-0.073
-0.064
-0.089
-0.108
-0.088
-0.079
-0.096
-0.082
-0.061
-0.073
-0.085
-0.069
-0.087
-0.087
-0.055
-0.04
-0.056
0.006
0.116
0.249
0.386
0.304
0.124
-0.017
-0.129
-0.147
-0.199
-0.271
-0.291
-0.254
-0.168
-0.055
-0.048
-0.086
-0.039
-0.011
-0.054
-0.026
-0.007
-0.02
-0.023
-0.006
0.004
0.001
0.022
0.04
0.005
0.011
0.037
0.029
0.016
0.044
0.062
0.04
0.046
0.059
0.045
0.046
0.068
0.059
0.055
0.084
0.089
0.071
0.089
0.122
0.11
0.109
0.138
0.153
0.142
0.154
0.163
0.158
0.16
0.176
0.154
0.152
0.173
0.159
0.122
0.116
0.116
0.068
0.04
0.03
0.006
-0.026
-0.025
-0.043
-0.07
-0.063
-0.055
-0.081
-0.089
-0.063
-0.075
-0.087
-0.07
-0.07
-0.092
-0.076
-0.06
-0.074
-0.079
-0.053
-0.061
-0.071
-0.045
-0.04
-0.065
-0.049
-0.03
-0.049
-0.052
-0.034
-0.043
-0.068
-0.043
-0.031
-0.048
-0.047
-0.029
-0.041
-0.051
-0.032
-0.032
-0.055
-0.046
-0.027
-0.042
-0.04
-0.026
-0.035
-0.047
-0.022
-0.027
-0.046
-0.03
-0.013
-0.037
-0.042
-0.019
-0.026
-0.034
-0.011
0.007
0.003
0.035
0.066
0.078
0.083
0.091
0.08
0.081
0.098
0.114
0.107
0.1
0.102
0.061
0.022
0.019
0.009
-0.016
-0.013
-0.031
-0.068
-0.071
-0.057
-0.081
-0.089
-0.072
-0.071
-0.087
-0.078
-0.068
-0.092
-0.092
-0.075
-0.077
-0.079
-0.052
-0.049
-0.05
-0.026
0.053
0.134
0.322
0.401
0.24
0.103
0.008
-0.096
-0.119
-0.168
-0.237
-0.283
-0.217
-0.096
-0.054
-0.064
-0.048
-0.024
-0.031
-0.034
-0.023
-0.034
-0.028
-0.009
-0.009
-0.018
0.007
0.021
0.004
0.006
0.039
0.031
0.016
0.04
0.052
0.036
0.046
0.066
0.048
0.057
0.072
0.07
0.06
0.088
0.094
0.081
0.095
0.122
0.113
0.117
0.138
0.137
0.135
0.153
0.165
0.15
0.165
0.176
0.158
0.145
0.161
0.149
0.119
0.118
0.115
0.075
0.053
0.041
0.002
-0.023
-0.025
-0.05
-0.082
-0.07
-0.068
-0.096
-0.093
-0.068
-0.078
-0.089
-0.076
-0.072
-0.09
-0.084
-0.069
-0.082
-0.077
-0.065
-0.066
-0.074
-0.054
-0.05
-0.074
-0.066
-0.037
-0.053
-0.05
-0.035
-0.042
-0.049
-0.037
-0.026
-0.047
-0.036
-0.017
-0.032
-0.041
-0.016
-0.022
-0.042
-0.03
-0.016
-0.033
-0.031
-0.017
-0.026
-0.036
-0.01
-0.007
-0.038
-0.031
-0.017
-0.036
-0.035
-0.011
-0.007
-0.006
0.021
0.046
0.046
0.073
0.08
0.056
0.086
0.111
0.105
0.102
0.124
0.113
0.08
0.05
0.039
0.006
-0.007
-0.003
-0.032
-0.071
-0.061
-0.047
-0.063
-0.065
-0.053
-0.063
-0.074
-0.052
-0.055
-0.071
-0.053
-0.033
-0.049
-0.037
-0.014
-0.027
-0.028
0.006
0.07
0.151
0.378
0.49
0.389
0.279
0.198
0.053
0.018
-0.027
-0.15
-0.254
-0.234
-0.137
-0.088
-0.062
-0.043
-0.048
-0.064
-0.049
-0.04
-0.059
-0.044
-0.019
-0.031
-0.035
-0.016
-0.019
-0.031
-0.011
0.009
-0.002
0.012
0.03
0.02
0.016
0.039
0.04
0.027
0.045
0.063
0.032
0.044
0.079
0.066
0.055
0.082
0.091
0.088
0.108
0.126
0.12
0.122
0.146
0.142
0.136
0.154
0.163
0.142
0.149
0.16
0.137
0.116
0.119
0.095
0.055
0.049
0.032
-0.001
-0.014
-0.01
-0.038
-0.055
-0.04
-0.057
-0.084
-0.078
-0.069
-0.092
-0.087
-0.066
-0.074
-0.087
-0.068
-0.064
-0.084
-0.076
-0.066
-0.08
-0.074
-0.052
-0.063
-0.072
-0.055
-0.045
-0.066
-0.058
-0.045
-0.06
-0.064
-0.048
-0.045
-0.059
-0.036
-0.032
-0.053
-0.057
-0.039
-0.049
-0.049
-0.027
-0.029
-0.055
-0.047
-0.043
-0.062
-0.058
-0.04
-0.053
-0.055
-0.032
-0.029
-0.045
-0.025
-0.004
0.001
0.018
0.055
0.056
0.028
0.063
0.094
0.078
0.087
0.114
0.086
0.068
0.063
0.02
-0.022
-0.015
-0.018
-0.049
-0.05
-0.049
-0.071
-0.077
-0.063
-0.078
-0.095
-0.081
-0.073
-0.091
-0.087
-0.071
-0.083
-0.093
-0.071
-0.055
-0.075
-0.057
-0.045
-0.031
0.048
0.202
0.389
0.39
0.257
0.144
-0.001
-0.092
-0.083
-0.167
-0.241
-0.246
-0.181
-0.111
-0.045
-0.041
-0.051
-0.039
-0.017
-0.031
-0.025
-0.006
-0.005
-0.021
-0.004
0.012
0
0.012
0.027
0.016
0.014
0.04
0.042
0.028
0.045
0.055
0.037
0.036
0.062
0.063
0.053
0.064
0.07
0.058
0.078
0.089
0.08
0.091
0.128
0.125
0.121
0.153
0.162
0.139
0.145
0.164
0.147
0.147
0.168
0.169
0.15
0.155
0.146
0.113
0.103
0.098
0.053
0.021
0.02
0.001
-0.03
-0.035
-0.033
-0.062
-0.062
-0.055
-0.069
-0.08
-0.068
-0.07
-0.084
-0.074
-0.068
-0.078
-0.074
-0.056
-0.062
-0.079
-0.058
-0.052
-0.071
-0.056
-0.043
-0.061
-0.062
-0.038
-0.047
-0.059
-0.036
-0.035
-0.061
-0.052
-0.036
-0.052
-0.054
-0.033
-0.039
-0.06
-0.032
-0.026
-0.046
-0.047
-0.029
-0.042
-0.045
-0.035
-0.039
-0.059
-0.048
-0.039
-0.053
-0.05
-0.033
-0.038
-0.044
-0.017
-0.003
-0.004
0.026
0.065
0.054
0.047
0.08
0.089
0.066
0.089
0.1
0.068
0.057
0.047
0.009
-0.016
-0.003
-0.019
-0.053
-0.061
-0.067
-0.085
-0.089
-0.079
-0.102
-0.107
-0.089
-0.094
-0.117
-0.104
-0.092
-0.105
-0.104
-0.081
-0.079
-0.08
-0.051
-0.043
-0.025
0.071
0.222
0.375
0.308
0.143
0.014
-0.152
-0.197
-0.203
-0.272
-0.302
-0.25
-0.168
-0.093
-0.052
-0.06
-0.071
-0.048
-0.037
-0.055
-0.036
-0.014
-0.021
-0.025
-0.007
-0.008
-0.018
-0.001
0.011
-0.002
0.011
0.027
0.017
0.014
0.045
0.043
0.021
0.035
0.051
0.041
0.037
0.06
0.059
0.053
0.075
0.079
0.076
0.097
0.118
0.105
0.115
0.144
0.143
0.127
0.149
0.159
0.146
0.153
0.169
0.154
0.144
0.156
0.135
0.092
0.085
0.071
0.025
0.01
0.011
-0.02
-0.05
-0.045
-0.058
-0.083
-0.072
-0.065
-0.084
-0.078
-0.062
-0.071
-0.086
-0.064
-0.068
-0.09
-0.072
-0.059
-0.079
-0.085
-0.063
-0.067
-0.076
-0.062
-0.063
-0.083
-0.064
-0.044
-0.057
-0.063
-0.044
-0.045
-0.071
-0.053
-0.05
-0.061
-0.053
-0.032
-0.047
-0.045
-0.023
-0.035
-0.057
-0.043
-0.034
-0.054
-0.05
-0.033
-0.048
-0.058
-0.038
-0.035
-0.054
-0.044
-0.027
-0.041
-0.039
-0.017
-0.017
-0.007
0.032
0.059
0.049
0.052
0.076
0.083
0.079
0.098
0.092
0.068
0.072
0.056
0.008
-0.011
0.004
-0.021
-0.038
-0.043
-0.06
-0.085
-0.074
-0.068
-0.085
-0.09
-0.076
-0.084
-0.092
-0.074
-0.073
-0.089
-0.073
-0.056
-0.063
-0.058
-0.038
-0.038
-0.021
0.073
0.175
0.346
0.39
0.234
0.083
-0.051
-0.126
-0.134
-0.201
-0.247
-0.244
-0.178
-0.076
-0.025
-0.032
-0.04
-0.009
-0.011
-0.03
-0.019
0.001
-0.011
0
0.018
0.007
0.015
0.038
0.035
0.025
0.055
0.067
0.044
0.039
0.076
0.065
0.054
0.072
0.081
0.073
0.085
0.099
0.081
0.09
0.107
0.101
0.093
0.121
0.132
0.124
0.139
0.169
0.156
0.151
0.165
0.165
0.161
0.182
0.18
0.16
0.162
0.162
0.14
0.119
0.124
0.095
0.058
0.042
0.027
-0.01
-0.023
-0.025
-0.051
-0.063
-0.053
-0.055
-0.075
-0.065
-0.062
-0.079
-0.085
-0.056
-0.072
-0.089
-0.07
-0.07
-0.079
-0.067
-0.046
-0.062
-0.062
-0.053
-0.061
-0.072
-0.05
-0.047
-0.068
-0.057
-0.039
-0.052
-0.06
-0.044
-0.05
-0.063
-0.046
-0.041
-0.06
-0.048
-0.027
-0.041
-0.051
-0.038
-0.042
-0.057
-0.04
-0.029
-0.047
-0.05
-0.037
-0.049
-0.06
-0.046
-0.045
-0.058
-0.043
-0.032
-0.041
-0.034
-0.007
0.012
0.02
0.061
0.067
0.042
0.06
0.093
0.08
0.085
0.116
0.091
0.067
0.05
0.021
-0.017
-0.019
-0.016
-0.038
-0.06
-0.05
-0.055
-0.079
-0.077
-0.071
-0.091
-0.08
-0.057
-0.072
-0.086
-0.062
-0.058
-0.084
-0.069
-0.043
-0.058
-0.055
-0.038
-0.014
0.057
0.233
0.436
0.398
0.274
0.207
0.082
0.007
0.006
-0.126
-0.253
-0.27
-0.191
-0.129
-0.072
-0.046
-0.063
-0.059
-0.038
-0.04
-0.05
-0.027
-0.011
-0.02
-0.017
0.014
0.004
0.001
0.017
0.023
0.016
0.033
0.043
0.028
0.04
0.065
0.06
0.054
0.07
0.074
0.064
0.068
0.091
0.076
0.078
0.099
0.103
0.096
0.12
0.126
0.113
0.13
0.158
0.15
0.143
0.16
0.161
0.153
0.162
0.164
0.146
0.148
0.152
0.121
0.094
0.09
0.07
0.028
0.027
0.011
-0.025
-0.04
-0.025
-0.041
-0.06
-0.048
-0.052
-0.067
-0.056
-0.04
-0.058
-0.066
-0.045
-0.046
-0.054
-0.038
-0.04
-0.051
-0.041
-0.03
-0.048
-0.048
-0.029
-0.034
-0.047
-0.027
-0.016
-0.031
-0.025
-0.014
-0.018
-0.031
-0.019
-0.025
-0.033
-0.024
-0.012
-0.03
-0.027
-0.016
-0.025
-0.036
-0.027
-0.03
-0.049
-0.038
-0.024
-0.031
-0.044
-0.03
-0.038
-0.039
-0.016
-0.002
-0.007
0.025
0.056
0.057
0.047
0.072
0.095
0.077
0.095
0.111
0.086
0.071
0.072
0.026
-0.004
-0.005
-0.019
-0.044
-0.047
-0.055
-0.079
-0.081
-0.074
-0.086
-0.097
-0.08
-0.082
-0.097
-0.088
-0.08
-0.095
-0.088
-0.07
-0.07
-0.075
-0.054
-0.051
-0.052
0.019
0.145
0.343
0.437
0.338
0.203
0.066
-0.05
-0.063
-0.134
-0.234
-0.275
-0.247
-0.164
-0.084
-0.064
-0.073
-0.054
-0.044
-0.06
-0.056
-0.035
-0.037
-0.033
-0.011
-0.009
-0.021
-0.002
0.011
-0.001
0.007
0.023
0.017
0.006
0.029
0.039
0.029
0.036
0.048
0.044
0.053
0.073
0.069
0.059
0.078
0.09
0.077
0.101
0.124
0.119
0.118
0.142
0.147
0.144
0.16
0.173
0.161
0.163
0.17
0.157
0.154
0.16
0.148
0.114
0.111
0.094
0.053
0.023
0.017
-0.014
-0.046
-0.044
-0.047
-0.069
-0.07
-0.06
-0.081
-0.077
-0.066
-0.075
-0.09
-0.077
-0.075
-0.089
-0.082
-0.062
-0.076
-0.08
-0.061
-0.065
-0.077
-0.065
-0.05
-0.068
-0.064
-0.052
-0.061
-0.07
-0.048
-0.045
-0.058
-0.048
-0.037
-0.047
-0.047
-0.034
-0.046
-0.054
-0.045
-0.043
-0.051
-0.041
-0.036
-0.053
-0.057
-0.037
-0.041
-0.045
-0.04
-0.042
-0.061
-0.048
-0.039
-0.05
-0.051
-0.029
-0.015
-0.017
0.022
0.049
0.051
0.047
0.068
0.076
0.072
0.087
0.096
0.074
0.071
0.069
0.018
-0.004
-0.006
-0.023
-0.039
-0.038
-0.058
-0.085
-0.079
-0.072
-0.091
-0.095
-0.083
-0.087
-0.095
-0.08
-0.076
-0.094
-0.081
-0.068
-0.066
-0.061
-0.039
-0.032
-0.022
0.056
0.15
0.315
0.421
0.287
0.111
-0.027
-0.149
-0.175
-0.209
-0.254
-0.275
-0.221
-0.127
-0.057
-0.062
-0.067
-0.045
-0.044
-0.063
-0.05
-0.032
-0.037
-0.035
-0.015
-0.013
-0.016
0.003
0.001
-0.011
0.007
0.029
0.015
0.007
0.025
0.021
0.01
0.024
0.043
0.03
0.039
0.054
0.047
0.046
0.073
0.066
0.055
0.084
0.107
0.103
0.115
0.137
0.135
0.136
0.155
0.155
0.145
0.16
0.169
0.159
0.156
0.165
0.136
0.11
0.11
0.094
0.049
0.028
0.021
-0.012
-0.032
-0.035
-0.048
-0.066
-0.055
-0.056
-0.076
-0.068
-0.057
-0.074
-0.08
-0.059
-0.062
-0.078
-0.066
-0.049
-0.063
-0.061
-0.05
-0.052
-0.058
-0.045
-0.052
-0.064
-0.055
-0.042
-0.055
-0.051
-0.028
-0.03
-0.043
-0.023
-0.024
-0.044
-0.03
-0.025
-0.042
-0.047
-0.022
-0.029
-0.045
-0.035
-0.031
-0.05
-0.047
-0.031
-0.043
-0.048
-0.034
-0.038
-0.054
-0.043
-0.041
-0.054
-0.051
-0.024
-0.03
-0.034
-0.005
0.021
0.032
0.063
0.067
0.042
0.068
0.094
0.086
0.081
0.102
0.086
0.056
0.035
0.032
-0.001
-0.011
-0.003
-0.021
-0.057
-0.065
-0.069
-0.099
-0.097
-0.083
-0.092
-0.095
-0.073
-0.077
-0.089
-0.078
-0.074
-0.092
-0.082
-0.053
-0.052
-0.049
-0.024
0.017
0.08
0.241
0.399
0.289
0.115
0.023
-0.124
-0.179
-0.181
-0.251
-0.315
-0.262
-0.145
-0.089
-0.069
-0.05
-0.054
-0.059
-0.037
-0.031
-0.039
-0.025
-0.003
-0.017
-0.013
0.015
0.019
0.004
0.013
0.022
0.016
0.033
0.039
0.024
0.017
0.041
0.043
0.032
0.048
0.063
0.045
0.048
0.072
0.068
0.058
0.082
0.097
0.089
0.103
0.119
0.12
0.122
0.145
0.137
0.133
0.149
0.16
0.147
0.149
0.162
0.137
0.122
0.128
0.102
0.065
0.05
0.028
-0.005
-0.018
-0.021
-0.048
-0.066
-0.058
-0.061
-0.088
-0.083
-0.079
-0.094
-0.094
-0.077
-0.085
-0.099
-0.076
-0.077
-0.094
-0.08
-0.069
-0.082
-0.079
-0.051
-0.061
-0.076
-0.058
-0.05
-0.068
-0.057
-0.035
-0.043
-0.054
-0.038
-0.042
-0.056
-0.041
-0.039
-0.058
-0.05
-0.027
-0.034
-0.042
-0.026
-0.019
-0.039
-0.026
-0.016
-0.033
-0.034
-0.016
-0.024
-0.035
-0.032
-0.03
-0.042
-0.032
-0.019
-0.037
-0.036
-0.017
-0.015
-0.022
0.013
0.034
0.034
0.064
0.093
0.073
0.072
0.113
0.111
0.1
0.129
0.121
0.086
0.071
0.057
0.029
0.006
0.013
-0.001
-0.027
-0.036
-0.032
-0.054
-0.061
-0.05
-0.064
-0.073
-0.057
-0.055
-0.076
-0.055
-0.046
-0.051
-0.056
-0.027
-0.028
-0.038
-0.019
0.002
0.047
0.156
0.368
0.424
0.288
0.193
0.087
-0.045
-0.033
-0.098
-0.21
-0.25
-0.173
-0.1
-0.054
-0.026
-0.024
-0.034
-0.021
-0.017
-0.036
-0.02
0.002
-0.007
-0.017
0.003
0.014
0.002
0.015
0.026
0.027
0.036
0.052
0.043
0.037
0.058
0.067
0.046
0.056
0.068
0.052
0.049
0.079
0.087
0.07
0.082
0.097
0.089
0.104
0.126
0.122
0.115
0.145
0.15
0.141
0.164
0.178
0.16
0.162
0.178
0.16
0.149
0.146
0.131
0.098
0.09
0.078
0.04
0.012
0.006
-0.028
-0.052
-0.039
-0.048
-0.075
-0.078
-0.07
-0.088
-0.084
-0.07
-0.081
-0.091
-0.069
-0.072
-0.085
-0.072
-0.053
-0.066
-0.072
-0.051
-0.048
-0.065
-0.052
-0.038
-0.057
-0.054
-0.036
-0.045
-0.048
-0.034
-0.028
-0.045
-0.032
-0.017
-0.032
-0.039
-0.02
-0.03
-0.039
-0.021
-0.023
-0.036
-0.03
-0.012
-0.035
-0.029
-0.015
-0.019
-0.037
-0.02
-0.015
-0.024
-0.025
-0.012
-0.026
-0.021
0.003
0.013
0.007
0.043
0.069
0.07
0.06
0.08
0.096
0.081
0.101
0.122
0.094
0.08
0.069
0.021
-0.001
0.008
-0.008
-0.042
-0.05
-0.06
-0.082
-0.081
-0.074
-0.088
-0.096
-0.075
-0.077
-0.094
-0.081
-0.074
-0.092
-0.094
-0.071
-0.069
-0.08
-0.057
-0.054
-0.048
0.034
0.171
0.388
0.439
0.346
0.229
0.106
0.001
-0.009
-0.103
-0.223
-0.282
-0.262
-0.174
-0.095
-0.081
-0.091
-0.071
-0.066
-0.086
-0.078
-0.053
-0.06
-0.055
-0.031
-0.03
-0.037
-0.032
-0.018
-0.028
-0.016
0.003
-0.007
-0.013
0.011
0.013
0.005
0.018
0.034
0.022
0.026
0.038
0.035
0.032
0.049
0.057
0.049
0.078
0.097
0.09
0.099
0.135
0.136
0.128
0.143
0.142
0.125
0.132
0.151
0.14
0.131
0.136
0.12
0.094
0.093
0.079
0.038
0.024
0.025
-0.009
-0.034
-0.027
-0.036
-0.065
-0.059
-0.053
-0.075
-0.074
-0.054
-0.064
-0.076
-0.065
-0.065
-0.08
-0.068
-0.052
-0.065
-0.066
-0.046
-0.049
-0.059
-0.045
-0.039
-0.058
-0.046
-0.033
-0.045
-0.047
-0.022
-0.034
-0.048
-0.03
-0.021
-0.028
-0.028
-0.012
-0.03
-0.033
-0.018
-0.019
-0.031
-0.016
-0.006
-0.023
-0.031
-0.014
-0.026
-0.033
-0.018
-0.018
-0.037
-0.016
0.015
0.016
0.039
0.079
0.087
0.057
0.079
0.1
0.09
0.096
0.122
0.097
0.072
0.069
0.036
-0.004
0.006
0.001
-0.028
-0.042
-0.045
-0.064
-0.078
-0.07
-0.084
-0.099
-0.089
-0.077
-0.089
-0.089
-0.07
-0.086
-0.09
-0.072
-0.057
-0.077
-0.067
-0.046
-0.03
0.037
0.167
0.364
0.42
0.285
0.147
-0.01
-0.134
-0.129
-0.19
-0.268
-0.282
-0.214
-0.134
-0.067
-0.051
-0.055
-0.05
-0.026
-0.042
-0.049
-0.022
-0.013
-0.024
-0.013
0.012
0.003
0.008
0.029
0.022
0.02
0.04
0.041
0.034
0.049
0.069
0.05
0.046
0.074
0.07
0.058
0.076
0.086
0.079
0.094
0.113
0.1
0.103
0.129
0.132
0.118
0.144
0.164
0.143
0.141
0.167
0.156
0.152
0.162
0.166
0.145
0.154
0.144
0.113
0.097
0.093
0.057
0.018
0.014
-0.005
-0.039
-0.05
-0.046
-0.073
-0.081
-0.067
-0.074
-0.091
-0.076
-0.072
-0.089
-0.088
-0.076
-0.094
-0.094
-0.07
-0.067
-0.08
-0.073
-0.067
-0.084
-0.076
-0.058
-0.071
-0.072
-0.051
-0.058
-0.067
-0.048
-0.036
-0.063
-0.064
-0.046
-0.05
-0.056
-0.041
-0.041
-0.058
-0.044
-0.02
-0.037
-0.047
-0.027
-0.038
-0.048
-0.033
-0.03
-0.053
-0.045
-0.03
-0.044
-0.051
-0.029
-0.034
-0.05
-0.027
-0.016
-0.022
0.001
0.038
0.055
0.047
0.059
0.079
0.08
0.089
0.1
0.083
0.065
0.065
0.034
-0.005
-0.003
-0.015
-0.045
-0.052
-0.049
-0.074
-0.077
-0.072
-0.092
-0.11
-0.088
-0.08
-0.097
-0.096
-0.081
-0.094
-0.098
-0.078
-0.079
-0.082
-0.065
-0.042
-0.049
-0.019
0.075
0.182
0.355
0.346
0.165
0.02
-0.112
-0.179
-0.197
-0.252
-0.291
-0.284
-0.19
-0.09
-0.053
-0.066
-0.05
-0.027
-0.041
-0.039
-0.024
-0.014
-0.019
-0.003
0.003
0.003
0.016
0.038
0.024
0.026
0.055
0.054
0.037
0.05
0.066
0.052
0.056
0.068
0.063
0.06
0.078
0.084
0.076
0.091
0.109
0.094
0.106
0.136
0.136
0.129
0.151
0.165
0.155
0.168
0.181
0.175
0.179
0.193
0.184
0.169
0.173
0.17
0.139
0.126
0.123
0.087
0.051
0.043
0.025
-0.008
-0.019
-0.027
-0.044
-0.05
-0.041
-0.06
-0.072
-0.05
-0.051
-0.073
-0.066
-0.048
-0.064
-0.068
-0.059
-0.062
-0.075
-0.059
-0.059
-0.074
-0.071
-0.052
-0.066
-0.07
-0.051
-0.056
-0.068
-0.057
-0.05
-0.059
-0.048
-0.033
-0.048
-0.059
-0.036
-0.034
-0.044
-0.035
-0.028
-0.044
-0.041
-0.022
-0.03
-0.048
-0.031
-0.033
-0.052
-0.043
-0.028
-0.051
-0.054
-0.035
-0.031
-0.048
-0.036
-0.035
-0.049
-0.033
-0.012
-0.016
-0.005
0.025
0.049
0.051
0.08
0.074
0.057
0.087
0.116
0.106
0.105
0.117
0.096
0.064
0.051
0.038
0.007
-0.001
0.004
-0.017
-0.055
-0.054
-0.061
-0.085
-0.081
-0.077
-0.091
-0.088
-0.073
-0.087
-0.1
-0.088
-0.086
-0.105
-0.085
-0.051
-0.061
-0.069
-0.038
-0.005
0.064
0.223
0.387
0.28
0.115
0.02
-0.123
-0.17
-0.172
-0.246
-0.315
-0.258
-0.15
-0.099
-0.077
-0.055
-0.062
-0.064
-0.043
-0.042
-0.053
-0.038
-0.02
-0.036
-0.031
0
-0.002
-0.014
0.007
0.022
0.013
0.017
0.033
0.028
0.035
0.055
0.047
0.03
0.046
0.067
0.052
0.054
0.072
0.068
0.064
0.09
0.097
0.091
0.109
0.124
0.12
0.129
0.151
0.135
0.13
0.153
0.162
0.142
0.142
0.151
0.137
0.125
0.129
0.102
0.069
0.055
0.042
0.005
-0.011
-0.026
-0.057
-0.076
-0.064
-0.068
-0.097
-0.088
-0.081
-0.097
-0.094
-0.078
-0.093
-0.097
-0.077
-0.075
-0.094
-0.078
-0.064
-0.084
-0.085
-0.06
-0.068
-0.084
-0.067
-0.066
-0.079
-0.059
-0.044
-0.063
-0.064
-0.042
-0.049
-0.06
-0.05
-0.045
-0.064
-0.05
-0.036
-0.042
-0.059
-0.039
-0.041
-0.054
-0.046
-0.038
-0.055
-0.052
-0.036
-0.046
-0.051
-0.032
-0.037
-0.057
-0.044
-0.032
-0.047
-0.042
-0.029
-0.038
-0.05
-0.033
-0.018
-0.028
-0.005
0.031
0.037
0.053
0.068
0.06
0.065
0.101
0.105
0.095
0.097
0.098
0.075
0.043
0.027
0.012
-0.012
-0.016
-0.031
-0.053
-0.055
-0.05
-0.073
-0.095
-0.082
-0.079
-0.092
-0.073
-0.053
-0.069
-0.066
-0.057
-0.064
-0.067
-0.039
-0.031
-0.052
-0.047
-0.002
0.07
0.221
0.426
0.382
0.232
0.159
0.063
-0.003
-0.015
-0.115
-0.23
-0.256
-0.163
-0.084
-0.065
-0.052
-0.036
-0.038
-0.037
-0.019
-0.034
-0.033
-0.013
-0.003
-0.017
-0.004
0.027
0.021
0.022
0.048
0.046
0.038
0.062
0.065
0.054
0.066
0.073
0.063
0.061
0.09
0.087
0.079
0.1
0.113
0.1
0.102
0.125
0.131
0.126
0.144
0.15
0.151
0.164
0.182
0.166
0.172
0.199
0.19
0.173
0.178
0.178
0.151
0.147
0.146
0.113
0.083
0.083
0.056
0.026
0.014
-0.001
-0.032
-0.034
-0.028
-0.047
-0.057
-0.043
-0.04
-0.058
-0.05
-0.048
-0.063
-0.062
-0.033
-0.05
-0.063
-0.047
-0.045
-0.066
-0.049
-0.03
-0.042
-0.05
-0.029
-0.031
-0.041
-0.019
-0.026
-0.045
-0.036
-0.012
-0.031
-0.039
-0.022
-0.024
-0.028
-0.017
-0.003
-0.026
-0.021
-0.007
-0.014
-0.028
-0.011
-0.016
-0.024
-0.013
-0.003
-0.024
-0.033
-0.015
-0.022
-0.026
-0.012
-0.002
-0.016
0.008
0.034
0.036
0.051
0.069
0.053
0.07
0.102
0.103
0.094
0.098
0.097
0.069
0.037
0.026
0
-0.028
-0.024
-0.028
-0.067
-0.073
-0.063
-0.088
-0.101
-0.085
-0.088
-0.096
-0.081
-0.074
-0.09
-0.087
-0.065
-0.074
-0.081
-0.051
-0.048
-0.066
-0.058
0.004
0.074
0.246
0.45
0.418
0.282
0.192
0.064
-0.013
-0.03
-0.138
-0.26
-0.294
-0.21
-0.136
-0.105
-0.088
-0.071
-0.082
-0.074
-0.062
-0.067
-0.066
-0.05
-0.045
-0.062
-0.04
-0.019
-0.036
-0.039
-0.013
-0.014
-0.017
-0.004
0.011
-0.004
0.005
0.02
0.007
0.014
0.032
0.03
0.019
0.046
0.054
0.043
0.049
0.074
0.065
0.065
0.086
0.099
0.092
0.107
0.121
0.107
0.115
0.14
0.134
0.116
0.127
0.126
0.099
0.096
0.086
0.048
0.026
0.027
0.005
-0.025
-0.025
-0.041
-0.071
-0.075
-0.059
-0.084
-0.097
-0.079
-0.086
-0.103
-0.084
-0.07
-0.088
-0.086
-0.068
-0.081
-0.082
-0.066
-0.068
-0.089
-0.076
-0.062
-0.076
-0.07
-0.049
-0.053
-0.068
-0.048
-0.047
-0.064
-0.054
-0.045
-0.06
-0.059
-0.041
-0.05
-0.063
-0.041
-0.035
-0.051
-0.041
-0.031
-0.047
-0.063
-0.045
-0.048
-0.058
-0.047
-0.038
-0.055
-0.051
-0.028
-0.035
-0.04
-0.017
-0.018
-0.03
-0.021
-0.002
0.001
0.024
0.063
0.076
0.081
0.086
0.101
0.103
0.102
0.111
0.11
0.105
0.108
0.077
0.036
0.031
0.031
0.005
-0.007
-0.009
-0.043
-0.06
-0.044
-0.053
-0.081
-0.069
-0.065
-0.072
-0.071
-0.051
-0.063
-0.071
-0.06
-0.061
-0.067
-0.057
-0.038
-0.041
-0.013
0.08
0.179
0.36
0.43
0.274
0.128
-0.008
-0.117
-0.145
-0.195
-0.247
-0.271
-0.218
-0.112
-0.048
-0.06
-0.055
-0.035
-0.036
-0.046
-0.03
-0.03
-0.026
-0.01
0.005
-0.002
0.015
0.037
0.026
0.021
0.037
0.043
0.019
0.032
0.049
0.046
0.044
0.064
0.055
0.049
0.066
0.068
0.052
0.063
0.088
0.075
0.073
0.097
0.113
0.104
0.123
0.143
0.137
0.136
0.161
0.159
0.153
0.17
0.169
0.149
0.157
0.159
0.125
0.103
0.103
0.076
0.04
0.028
0.011
-0.017
-0.031
-0.034
-0.059
-0.071
-0.059
-0.066
-0.084
-0.068
-0.062
-0.084
-0.08
-0.068
-0.077
-0.081
-0.068
-0.075
-0.088
-0.074
-0.064
-0.081
-0.077
-0.062
-0.07
-0.074
-0.06
-0.059
-0.087
-0.075
-0.052
-0.063
-0.067
-0.047
-0.052
-0.059
-0.048
-0.049
-0.062
-0.049
-0.029
-0.041
-0.052
-0.046
-0.053
-0.071
-0.053
-0.045
-0.054
-0.055
-0.036
-0.046
-0.055
-0.041
-0.042
-0.059
-0.045
-0.029
-0.046
-0.045
-0.028
-0.03
-0.041
-0.028
-0.031
-0.041
-0.016
0.016
0.024
0.044
0.085
0.074
0.054
0.086
0.111
0.09
0.102
0.113
0.085
0.066
0.055
0.027
-0.007
0.003
0.005
-0.029
-0.059
-0.06
-0.073
-0.088
-0.081
-0.079
-0.096
-0.084
-0.08
-0.097
-0.095
-0.072
-0.075
-0.087
-0.066
-0.049
-0.057
-0.042
-0.012
0.016
0.099
0.264
0.408
0.299
0.136
0.025
-0.124
-0.17
-0.165
-0.24
-0.291
-0.235
-0.131
-0.076
-0.051
-0.041
-0.047
-0.035
-0.017
-0.024
-0.036
-0.016
-0.007
-0.015
-0.009
0.012
0.008
0.013
0.03
0.035
0.035
0.051
0.051
0.037
0.052
0.069
0.048
0.038
0.07
0.068
0.053
0.065
0.087
0.078
0.08
0.101
0.1
0.101
0.123
0.132
0.126
0.148
0.169
0.159
0.163
0.186
0.181
0.176
0.176
0.177
0.158
0.158
0.153
0.124
0.099
0.088
0.059
0.021
0.015
-0.001
-0.036
-0.046
-0.038
-0.052
-0.066
-0.058
-0.06
-0.073
-0.064
-0.058
-0.074
-0.067
-0.051
-0.061
-0.074
-0.061
-0.069
-0.092
-0.081
-0.058
-0.074
-0.074
-0.058
-0.062
-0.069
-0.059
-0.053
-0.074
-0.061
-0.046
-0.054
-0.066
-0.042
-0.045
-0.056
-0.051
-0.04
-0.056
-0.051
-0.026
-0.038
-0.049
-0.04
-0.046
-0.059
-0.041
-0.03
-0.046
-0.049
-0.033
-0.046
-0.053
-0.038
-0.032
-0.048
-0.045
-0.031
-0.041
-0.041
-0.026
-0.03
-0.04
-0.027
-0.017
-0.017
-0.004
0.021
0.027
0.043
0.083
0.079
0.062
0.093
0.117
0.097
0.106
0.124
0.102
0.068
0.059
0.026
-0.007
-0.003
0.01
-0.02
-0.04
-0.038
-0.049
-0.065
-0.056
-0.063
-0.078
-0.068
-0.052
-0.059
-0.068
-0.046
-0.048
-0.064
-0.043
-0.026
-0.035
-0.024
0
0.02
0.088
0.248
0.428
0.353
0.208
0.111
-0.033
-0.086
-0.084
-0.178
-0.264
-0.231
-0.138
-0.075
-0.038
-0.02
-0.027
-0.02
-0.001
-0.018
-0.026
0.002
0.013
0.002
0.015
0.033
0.021
0.021
0.039
0.039
0.039
0.052
0.062
0.054
0.06
0.079
0.064
0.052
0.072
0.081
0.065
0.083
0.095
0.078
0.093
0.116
0.121
0.118
0.137
0.144
0.132
0.152
0.17
0.161
0.161
0.18
0.178
0.17
0.177
0.179
0.161
0.157
0.161
0.126
0.104
0.095
0.073
0.019
0.021
0.018
-0.021
-0.033
-0.026
-0.045
-0.057
-0.055
-0.059
-0.073
-0.066
-0.055
-0.063
-0.062
-0.052
-0.056
-0.07
-0.047
-0.04
-0.062
-0.052
-0.033
-0.043
-0.055
-0.04
-0.035
-0.05
-0.035
-0.027
-0.049
-0.045
-0.038
-0.037
-0.048
-0.03
-0.034
-0.046
-0.041
-0.024
-0.04
-0.041
-0.028
-0.035
-0.049
-0.034
-0.036
-0.058
-0.046
-0.04
-0.046
-0.063
-0.032
-0.04
-0.053
-0.046
-0.031
-0.051
-0.044
-0.029
-0.031
-0.033
-0.019
-0.02
-0.042
-0.024
-0.005
-0.009
0
0.027
0.037
0.048
0.05
0.051
0.054
0.074
0.089
0.091
0.086
0.085
0.059
0.02
0.003
-0.005
-0.027
-0.035
-0.052
-0.074
-0.081
-0.065
-0.077
-0.103
-0.099
-0.081
-0.1
-0.093
-0.081
-0.077
-0.085
-0.068
-0.072
-0.079
-0.063
-0.051
-0.073
-0.043
0.049
0.173
0.377
0.449
0.342
0.227
0.121
0.012
-0.01
-0.097
-0.208
-0.288
-0.27
-0.176
-0.109
-0.105
-0.1
-0.083
-0.088
-0.09
-0.073
-0.064
-0.071
-0.052
-0.04
-0.049
-0.043
-0.025
-0.03
-0.033
-0.009
0.001
-0.013
0.002
0.018
0.009
0.006
0.023
0.023
0.014
0.033
0.04
0.032
0.041
0.054
0.047
0.055
0.082
0.085
0.077
0.09
0.106
0.101
0.111
0.132
0.133
0.128
0.151
0.145
0.123
0.129
0.13
0.1
0.089
0.093
0.064
0.028
0.021
0.01
-0.02
-0.025
-0.031
-0.051
-0.069
-0.064
-0.074
-0.091
-0.077
-0.07
-0.089
-0.085
-0.062
-0.082
-0.089
-0.071
-0.068
-0.084
-0.069
-0.064
-0.076
-0.076
-0.057
-0.066
-0.071
-0.055
-0.056
-0.064
-0.053
-0.038
-0.053
-0.053
-0.036
-0.04
-0.055
-0.04
-0.039
-0.056
-0.053
-0.034
-0.049
-0.056
-0.042
-0.045
-0.058
-0.049
-0.038
-0.061
-0.055
-0.04
-0.049
-0.056
-0.043
-0.039
-0.044
-0.026
-0.012
-0.011
0.01
0.039
0.057
0.052
0.048
0.077
0.081
0.089
0.102
0.096
0.072
0.071
0.041
0.001
-0.001
0.006
-0.022
-0.037
-0.043
-0.065
-0.075
-0.07
-0.077
-0.091
-0.074
-0.063
-0.081
-0.085
-0.066
-0.068
-0.072
-0.058
-0.056
-0.061
-0.049
-0.036
-0.037
-0.001
0.114
0.266
0.441
0.407
0.242
0.089
-0.058
-0.099
-0.131
-0.212
-0.264
-0.267
-0.182
-0.088
-0.053
-0.07
-0.063
-0.037
-0.037
-0.051
-0.033
-0.026
-0.031
-0.018
0.006
0.005
0.012
0.028
0.019
0.019
0.045
0.051
0.033
0.043
0.059
0.051
0.048
0.069
0.065
0.054
0.067
0.074
0.056
0.074
0.1
0.08
0.08
0.107
0.116
0.111
0.138
0.156
0.149
0.151
0.179
0.169
0.165
0.179
0.176
0.163
0.168
0.168
0.14
0.129
0.122
0.086
0.042
0.04
0.018
-0.018
-0.034
-0.034
-0.054
-0.063
-0.058
-0.073
-0.094
-0.078
-0.066
-0.088
-0.087
-0.069
-0.082
-0.096
-0.065
-0.064
-0.072
-0.063
-0.055
-0.066
-0.059
-0.048
-0.063
-0.076
-0.059
-0.051
-0.068
-0.059
-0.048
-0.06
-0.063
-0.045
-0.057
-0.068
-0.052
-0.042
-0.054
-0.043
-0.038
-0.06
-0.065
-0.044
-0.044
-0.064
-0.054
-0.05
-0.06
-0.055
-0.039
-0.054
-0.068
-0.05
-0.052
-0.063
-0.056
-0.041
-0.055
-0.052
-0.028
-0.024
-0.028
-0.007
0.014
0.02
0.056
0.084
0.065
0.075
0.102
0.098
0.095
0.116
0.116
0.078
0.063
0.042
0.008
-0.009
0.008
-0.008
-0.045
-0.051
-0.046
-0.067
-0.072
-0.057
-0.064
-0.075
-0.063
-0.054
-0.072
-0.058
-0.05
-0.064
-0.066
-0.029
-0.024
-0.028
-0.001
0.037
0.101
0.241
0.43
0.353
0.168
0.058
-0.087
-0.165
-0.16
-0.21
-0.265
-0.234
-0.123
-0.068
-0.062
-0.045
-0.036
-0.039
-0.026
-0.01
-0.023
-0.022
0.001
-0.005
-0.017
0.01
0.021
0.015
0.023
0.041
0.039
0.032
0.048
0.052
0.047
0.064
0.066
0.048
0.059
0.077
0.063
0.054
0.078
0.086
0.079
0.093
0.108
0.096
0.102
0.122
0.13
0.13
0.148
0.155
0.15
0.166
0.177
0.158
0.156
0.174
0.161
0.138
0.136
0.122
0.083
0.067
0.06
0.018
-0.012
-0.01
-0.027
-0.059
-0.058
-0.059
-0.084
-0.088
-0.075
-0.081
-0.089
-0.084
-0.08
-0.091
-0.077
-0.065
-0.083
-0.085
-0.068
-0.075
-0.083
-0.068
-0.064
-0.079
-0.072
-0.057
-0.071
-0.069
-0.049
-0.056
-0.069
-0.064
-0.049
-0.062
-0.05
-0.034
-0.046
-0.052
-0.033
-0.04
-0.051
-0.038
-0.026
-0.043
-0.042
-0.026
-0.031
-0.042
-0.031
-0.032
-0.056
-0.043
-0.029
-0.043
-0.044
-0.022
-0.027
-0.033
-0.018
0.001
-0.005
0.025
0.053
0.057
0.051
0.068
0.084
0.076
0.093
0.105
0.089
0.077
0.076
0.033
0
-0.001
-0.009
-0.042
-0.047
-0.053
-0.08
-0.081
-0.072
-0.087
-0.103
-0.09
-0.094
-0.104
-0.099
-0.085
-0.094
-0.091
-0.079
-0.07
-0.077
-0.059
-0.046
-0.054
-0.001
0.101
0.257
0.394
0.3
0.136
0.005
-0.116
-0.132
-0.173
-0.241
-0.273
-0.234
-0.146
-0.066
-0.052
-0.067
-0.049
-0.025
-0.033
-0.036
-0.02
-0.013
-0.014
0.002
0.007
-0.002
0.005
0.028
0.026
0.022
0.036
0.031
0.019
0.043
0.061
0.047
0.048
0.066
0.064
0.062
0.077
0.073
0.061
0.085
0.102
0.084
0.088
0.116
0.114
0.106
0.13
0.14
0.143
0.147
0.165
0.157
0.158
0.178
0.166
0.15
0.155
0.156
0.12
0.11
0.106
0.075
0.04
0.04
0.008
-0.031
-0.037
-0.037
-0.06
-0.066
-0.059
-0.071
-0.084
-0.075
-0.083
-0.088
-0.079
-0.059
-0.067
-0.079
-0.068
-0.068
-0.085
-0.062
-0.06
-0.073
-0.054
-0.042
-0.057
-0.061
-0.042
-0.048
-0.063
-0.046
-0.037
-0.058
-0.05
-0.03
-0.039
-0.042
-0.032
-0.028
-0.046
-0.032
-0.015
-0.028
-0.041
-0.025
-0.035
-0.045
-0.024
-0.023
-0.04
-0.039
-0.028
-0.047
-0.046
-0.028
-0.032
-0.046
-0.029
-0.018
-0.025
-0.01
0.017
0.027
0.053
0.083
0.068
0.06
0.102
0.122
0.102
0.111
0.109
0.082
0.061
0.048
0.024
-0.005
-0.002
-0.009
-0.04
-0.058
-0.04
-0.058
-0.07
-0.061
-0.058
-0.076
-0.065
-0.052
-0.073
-0.073
-0.049
-0.046
-0.064
-0.038
-0.028
-0.031
-0.027
0.002
0.056
0.175
0.404
0.468
0.355
0.254
0.156
0.016
0.004
-0.06
-0.191
-0.278
-0.221
-0.14
-0.094
-0.065
-0.048
-0.06
-0.057
-0.039
-0.039
-0.045
-0.022
-0.006
-0.03
-0.022
-0.001
-0.011
-0.02
0.005
0.012
0.008
0.024
0.028
0.013
0.019
0.042
0.035
0.035
0.051
0.059
0.039
0.057
0.069
0.061
0.066
0.091
0.093
0.088
0.108
0.117
0.111
0.136
0.155
0.141
0.136
0.153
0.159
0.148
0.163
0.168
0.144
0.138
0.138
0.102
0.076
0.071
0.048
0.012
0.003
-0.001
-0.037
-0.039
-0.034
-0.055
-0.068
-0.058
-0.061
-0.077
-0.072
-0.05
-0.067
-0.071
-0.054
-0.064
-0.072
-0.056
-0.052
-0.065
-0.049
-0.04
-0.048
-0.061
-0.034
-0.037
-0.049
-0.044
-0.034
-0.056
-0.052
-0.037
-0.045
-0.049
-0.031
-0.03
-0.045
-0.037
-0.032
-0.051
-0.05
-0.03
-0.039
-0.051
-0.04
-0.034
-0.054
-0.044
-0.029
-0.044
-0.048
-0.024
-0.022
-0.022
0.011
0.032
0.041
0.051
0.057
0.067
0.079
0.089
0.088
0.083
0.071
0.059
0.026
0
-0.011
-0.022
-0.045
-0.043
-0.062
-0.089
-0.082
-0.077
-0.1
-0.106
-0.091
-0.098
-0.107
-0.1
-0.097
-0.11
-0.098
-0.084
-0.089
-0.09
-0.071
-0.064
-0.067
-0.026
0.058
0.191
0.398
0.403
0.251
0.125
-0.003
-0.079
-0.117
-0.193
-0.274
-0.313
-0.235
-0.13
-0.091
-0.09
-0.069
-0.058
-0.073
-0.061
-0.043
-0.044
-0.038
-0.023
-0.033
-0.041
-0.013
-0.002
-0.012
-0.003
0.018
0.008
0.003
0.025
0.028
0.01
0.027
0.038
0.03
0.041
0.056
0.05
0.052
0.073
0.066
0.06
0.081
0.101
0.089
0.091
0.123
0.127
0.114
0.131
0.145
0.139
0.147
0.16
0.145
0.136
0.144
0.137
0.109
0.101
0.082
0.05
0.025
0.017
-0.007
-0.032
-0.03
-0.042
-0.065
-0.059
-0.055
-0.077
-0.086
-0.06
-0.059
-0.07
-0.063
-0.062
-0.081
-0.073
-0.053
-0.061
-0.069
-0.052
-0.049
-0.057
-0.045
-0.049
-0.06
-0.057
-0.038
-0.048
-0.057
-0.039
-0.033
-0.045
-0.033
-0.03
-0.051
-0.038
-0.017
-0.025
-0.035
-0.011
-0.016
-0.031
-0.024
-0.005
-0.02
-0.024
-0.003
-0.005
-0.018
-0.006
-0.004
-0.023
-0.017
-0.008
-0.019
-0.024
-0.001
-0.001
-0.004
0.026
0.052
0.061
0.072
0.084
0.088
0.093
0.104
0.105
0.099
0.1
0.088
0.051
0.024
0.016
0.002
-0.021
-0.019
-0.04
-0.07
-0.063
-0.057
-0.081
-0.098
-0.084
-0.081
-0.084
-0.073
-0.07
-0.08
-0.073
-0.052
-0.057
-0.047
-0.03
-0.021
-0.025
0.017
0.114
0.235
0.422
0.377
0.178
0.046
-0.084
-0.164
-0.185
-0.237
-0.269
-0.251
-0.15
-0.06
-0.039
-0.053
-0.034
-0.021
-0.038
-0.034
-0.019
-0.02
-0.022
-0.006
-0.009
-0.005
0.017
0.029
0.008
0.015
0.038
0.029
0.017
0.035
0.045
0.03
0.037
0.053
0.048
0.046
0.056
0.051
0.055
0.078
0.083
0.067
0.083
0.107
0.104
0.103
0.126
0.13
0.127
0.145
0.155
0.146
0.153
0.16
0.143
0.143
0.157
0.142
0.111
0.102
0.095
0.056
0.035
0.02
-0.005
-0.038
-0.041
-0.051
-0.074
-0.08
-0.082
-0.094
-0.096
-0.085
-0.092
-0.103
-0.089
-0.083
-0.092
-0.088
-0.078
-0.084
-0.093
-0.074
-0.076
-0.082
-0.07
-0.062
-0.072
-0.068
-0.054
-0.068
-0.079
-0.061
-0.051
-0.065
-0.061
-0.049
-0.058
-0.056
-0.039
-0.049
-0.059
-0.042
-0.04
-0.058
-0.055
-0.038
-0.054
-0.055
-0.04
-0.05
-0.073
-0.052
-0.047
-0.063
-0.06
-0.041
-0.052
-0.055
-0.028
-0.016
-0.014
0.016
0.045
0.04
0.036
0.05
0.07
0.064
0.085
0.096
0.076
0.061
0.052
0.005
-0.019
-0.018
-0.023
-0.044
-0.054
-0.067
-0.093
-0.083
-0.082
-0.095
-0.103
-0.083
-0.095
-0.112
-0.099
-0.089
-0.103
-0.089
-0.069
-0.074
-0.074
-0.049
-0.04
-0.042
0.018
0.116
0.267
0.394
0.292
0.127
0
-0.115
-0.143
-0.169
-0.231
-0.262
-0.227
-0.131
-0.051
-0.04
-0.049
-0.028
-0.012
-0.032
-0.031
-0.009
-0.011
-0.008
0.002
-0.001
-0.006
0.016
0.03
0.012
0.029
0.05
0.047
0.034
0.052
0.053
0.041
0.045
0.068
0.063
0.066
0.085
0.079
0.069
0.081
0.088
0.078
0.095
0.119
0.112
0.114
0.141
0.145
0.142
0.156
0.168
0.153
0.155
0.165
0.154
0.155
0.168
0.152
0.119
0.113
0.102
0.066
0.046
0.037
0.012
-0.024
-0.028
-0.042
-0.06
-0.059
-0.033
-0.024
-0.073
-0.056
-0.065
-0.092
-0.077
-0.069
-0.09
-0.087
-0.067
-0.069
-0.079
-0.067
-0.067
-0.075
-0.064
-0.055
-0.07
-0.059
-0.045
-0.055
-0.067
-0.045
-0.04
-0.057
-0.049
-0.027
-0.031
-0.03
-0.026
-0.033
-0.038
-0.025
-0.024
-0.043
-0.032
-0.018
-0.025
-0.04
-0.021
-0.026
-0.036
-0.024
-0.015
-0.028
-0.021
-0.007
-0.021
-0.019
0.007
0.013
0.012
0.041
0.066
0.083
0.084
0.094
0.11
0.117
0.12
0.127
0.119
0.122
0.116
0.071
0.046
0.048
0.035
-0.003
0
-0.012
-0.04
-0.032
-0.029
-0.05
-0.061
-0.052
-0.047
-0.071
-0.068
-0.058
-0.067
-0.065
-0.053
-0.055
-0.049
-0.029
-0.023
-0.027
0.013
0.113
0.278
0.433
0.387
0.253
0.15
0.043
0.014
-0.05
-0.167
-0.237
-0.251
-0.169
-0.079
-0.055
-0.07
-0.051
-0.032
-0.044
-0.043
-0.022
-0.032
-0.035
-0.017
-0.012
-0.025
-0.005
0.008
-0.002
0
0.026
0.02
0.003
0.029
0.048
0.032
0.032
0.055
0.051
0.056
0.067
0.054
0.046
0.075
0.088
0.085
0.095
0.118
0.12
0.119
0.136
0.147
0.134
0.149
0.156
0.151
0.163
0.17
0.157
0.146
0.166
0.15
0.117
0.11
0.097
0.058
0.041
0.046
0.025
-0.014
-0.018
-0.03
-0.057
-0.05
-0.046
-0.059
-0.072
-0.059
-0.067
-0.081
-0.073
-0.068
-0.077
-0.074
-0.054
-0.065
-0.07
-0.053
-0.053
-0.072
-0.066
-0.059
-0.058
-0.054
-0.041
-0.051
-0.059
-0.039
-0.034
-0.053
-0.047
-0.03
-0.047
-0.05
-0.031
-0.035
-0.045
-0.034
-0.033
-0.037
-0.036
-0.021
-0.03
-0.044
-0.029
-0.03
-0.047
-0.043
-0.029
-0.04
-0.027
-0.006
-0.015
-0.012
0.02
0.037
0.048
0.068
0.065
0.06
0.076
0.098
0.09
0.09
0.087
0.081
0.052
0.029
0.015
-0.017
-0.03
-0.023
-0.048
-0.078
-0.076
-0.081
-0.102
-0.099
-0.085
-0.098
-0.101
-0.087
-0.094
-0.108
-0.092
-0.085
-0.102
-0.092
-0.075
-0.075
-0.074
-0.032
0.031
0.151
0.377
0.425
0.294
0.181
0.082
-0.025
-0.058
-0.127
-0.246
-0.314
-0.264
-0.163
-0.11
-0.101
-0.075
-0.073
-0.079
-0.069
-0.049
-0.058
-0.053
-0.04
-0.05
-0.055
-0.027
-0.024
-0.031
-0.014
0.01
-0.001
-0.005
0.02
0.021
0.008
0.019
0.03
0.023
0.032
0.048
0.039
0.039
0.063
0.068
0.06
0.073
0.085
0.08
0.086
0.116
0.12
0.12
0.143
0.151
0.134
0.149
0.151
0.136
0.134
0.146
0.136
0.118
0.116
0.1
0.067
0.053
0.045
0.015
0
-0.003
-0.031
-0.056
-0.044
-0.046
-0.06
-0.062
-0.048
-0.056
-0.065
-0.045
-0.052
-0.065
-0.058
-0.044
-0.058
-0.059
-0.042
-0.052
-0.062
-0.043
-0.043
-0.061
-0.048
-0.032
-0.047
-0.046
-0.033
-0.04
-0.045
-0.034
-0.033
-0.044
-0.039
-0.019
-0.026
-0.035
-0.018
-0.02
-0.024
-0.015
-0.012
-0.033
-0.031
-0.014
-0.02
-0.028
-0.016
-0.018
-0.036
-0.032
-0.024
-0.036
-0.037
-0.018
-0.023
-0.024
-0.011
-0.002
0.005
0.027
0.06
0.064
0.059
0.068
0.095
0.093
0.097
0.104
0.09
0.077
0.073
0.033
0.01
0.005
-0.005
-0.025
-0.031
-0.04
-0.07
-0.073
-0.063
-0.074
-0.087
-0.071
-0.074
-0.094
-0.09
-0.074
-0.089
-0.087
-0.076
-0.071
-0.072
-0.052
-0.031
-0.032
0.031
0.13
0.301
0.429
0.31
0.137
-0.002
-0.131
-0.162
-0.197
-0.252
-0.276
-0.233
-0.138
-0.052
-0.038
-0.06
-0.048
-0.027
-0.036
-0.042
-0.017
-0.008
-0.015
-0.014
-0.004
-0.009
0.003
0.01
0.002
0.011
0.035
0.031
0.022
0.039
0.048
0.031
0.032
0.052
0.047
0.043
0.061
0.066
0.066
0.078
0.083
0.068
0.079
0.102
0.102
0.092
0.12
0.136
0.134
0.139
0.155
0.145
0.151
0.166
0.152
0.137
0.143
0.139
0.106
0.094
0.081
0.043
0.008
0.011
-0.005
-0.033
-0.043
-0.052
-0.08
-0.08
-0.067
-0.083
-0.09
-0.074
-0.071
-0.094
-0.087
-0.077
-0.084
-0.089
-0.074
-0.083
-0.092
-0.076
-0.07
-0.082
-0.072
-0.059
-0.067
-0.059
-0.046
-0.051
-0.069
-0.058
-0.058
-0.067
-0.062
-0.052
-0.063
-0.069
-0.047
-0.049
-0.056
-0.039
-0.029
-0.046
-0.054
-0.041
-0.044
-0.055
-0.038
-0.04
-0.053
-0.046
-0.036
-0.047
-0.045
-0.028
-0.037
-0.047
-0.038
-0.043
-0.061
-0.049
-0.037
-0.045
-0.04
-0.014
-0.005
-0.005
0.023
0.056
0.065
0.059
0.068
0.076
0.088
0.099
0.102
0.098
0.092
0.084
0.045
0.017
0.014
-0.007
-0.027
-0.031
-0.044
-0.076
-0.077
-0.071
-0.087
-0.092
-0.075
-0.075
-0.095
-0.085
-0.081
-0.095
-0.085
-0.077
-0.084
-0.076
-0.055
-0.043
-0.047
-0.008
0.08
0.188
0.37
0.34
0.166
0.04
-0.08
-0.156
-0.173
-0.231
-0.275
-0.27
-0.177
-0.075
-0.048
-0.062
-0.053
-0.038
-0.045
-0.036
-0.023
-0.018
-0.021
0
-0.002
-0.009
0.009
0.023
0.013
0.026
0.046
0.039
0.029
0.046
0.057
0.047
0.049
0.06
0.058
0.063
0.08
0.073
0.064
0.088
0.099
0.091
0.103
0.129
0.121
0.12
0.144
0.153
0.146
0.164
0.175
0.167
0.171
0.188
0.176
0.172
0.187
0.174
0.143
0.131
0.123
0.089
0.061
0.055
0.028
-0.006
-0.017
-0.025
-0.048
-0.046
-0.037
-0.062
-0.072
-0.059
-0.061
-0.078
-0.069
-0.057
-0.074
-0.069
-0.051
-0.056
-0.061
-0.049
-0.053
-0.068
-0.058
-0.051
-0.066
-0.056
-0.036
-0.045
-0.051
-0.035
-0.03
-0.054
-0.048
-0.042
-0.05
-0.048
-0.032
-0.038
-0.053
-0.038
-0.031
-0.044
-0.039
-0.016
-0.033
-0.041
-0.029
-0.032
-0.05
-0.045
-0.04
-0.05
-0.045
-0.03
-0.036
-0.043
-0.026
-0.024
-0.043
-0.033
-0.027
-0.037
-0.041
-0.027
-0.025
-0.029
-0.004
0.01
-0.001
0.022
0.059
0.068
0.074
0.076
0.074
0.081
0.096
0.108
0.102
0.101
0.094
0.064
0.026
0.018
0.007
-0.015
-0.017
-0.019
-0.05
-0.054
-0.041
-0.057
-0.079
-0.071
-0.068
-0.078
-0.075
-0.068
-0.08
-0.082
-0.067
-0.07
-0.069
-0.053
-0.033
-0.044
-0.031
0.036
0.119
0.303
0.435
0.322
0.189
0.112
-0.006
-0.038
-0.094
-0.185
-0.261
-0.233
-0.133
-0.066
-0.063
-0.058
-0.047
-0.057
-0.065
-0.049
-0.045
-0.044
-0.022
-0.011
-0.024
-0.015
0.011
-0.005
-0.014
0.017
0.023
0.012
0.023
0.037
0.028
0.035
0.051
0.04
0.044
0.069
0.066
0.05
0.074
0.089
0.08
0.077
0.1
0.102
0.104
0.118
0.133
0.123
0.138
0.159
0.145
0.135
0.156
0.162
0.15
0.155
0.157
0.126
0.117
0.119
0.095
0.064
0.055
0.036
-0.002
-0.007
-0.01
-0.037
-0.043
-0.037
-0.049
-0.063
-0.059
-0.056
-0.067
-0.067
-0.058
-0.06
-0.058
-0.052
-0.059
-0.07
-0.044
-0.041
-0.059
-0.057
-0.043
-0.047
-0.055
-0.039
-0.037
-0.048
-0.038
-0.029
-0.037
-0.033
-0.014
-0.021
-0.029
-0.016
-0.019
-0.033
-0.029
-0.011
-0.025
-0.028
-0.018
-0.013
-0.024
0.009
-0.028
-0.023
-0.023
-0.015
-0.031
-0.036
-0.027
-0.03
-0.047
-0.043
-0.024
-0.04
-0.028
-0.005
-0.015
-0.015
0.009
0.031
0.032
0.058
0.062
0.044
0.071
0.103
0.089
0.089
0.115
0.097
0.061
0.035
0.023
-0.017
-0.028
-0.024
-0.034
-0.062
-0.055
-0.054
-0.076
-0.082
-0.072
-0.081
-0.084
-0.073
-0.072
-0.085
-0.073
-0.059
-0.072
-0.062
-0.045
-0.055
-0.059
-0.036
0.018
0.108
0.307
0.483
0.395
0.276
0.182
0.033
-0.018
-0.041
-0.161
-0.285
-0.29
-0.198
-0.129
-0.103
-0.088
-0.083
-0.081
-0.071
-0.058
-0.064
-0.055
-0.039
-0.043
-0.043
-0.03
-0.024
-0.035
-0.019
0.001
-0.006
-0.009
0.012
0.01
0.007
0.021
0.025
0.011
0.018
0.04
0.029
0.025
0.044
0.049
0.04
0.06
0.072
0.067
0.076
0.105
0.103
0.107
0.118
0.12
0.107
0.12
0.139
0.125
0.125
0.143
0.145
0.114
0.1
0.086
0.056
0.037
0.031
0.004
-0.015
-0.021
-0.039
-0.058
-0.06
-0.059
-0.084
-0.083
-0.072
-0.083
-0.09
-0.077
-0.082
-0.096
-0.08
-0.058
-0.069
-0.071
-0.065
-0.067
-0.069
-0.048
-0.046
-0.068
-0.06
-0.044
-0.055
-0.055
-0.036
-0.039
-0.05
-0.037
-0.035
-0.05
-0.048
-0.034
-0.042
-0.049
-0.029
-0.032
-0.049
-0.04
-0.029
-0.045
-0.04
-0.027
-0.034
-0.043
-0.03
-0.029
-0.046
-0.042
-0.027
-0.036
-0.026
-0.009
-0.011
-0.022
0.001
0.011
0.003
0.025
0.058
0.07
0.084
0.09
0.097
0.107
0.115
0.128
0.124
0.116
0.102
0.063
0.026
0.024
0.013
-0.008
-0.017
-0.024
-0.053
-0.062
-0.054
-0.066
-0.082
-0.072
-0.066
-0.082
-0.082
-0.075
-0.083
-0.084
-0.071
-0.068
-0.066
-0.055
-0.033
-0.037
0.006
0.109
0.217
0.399
0.4
0.226
0.086
-0.054
-0.131
-0.149
-0.208
-0.253
-0.261
-0.191
-0.095
-0.058
-0.065
-0.059
-0.038
-0.05
-0.047
-0.022
-0.02
-0.028
-0.025
-0.017
-0.026
-0.01
0.014
0.002
0.002
0.024
0.033
0.02
0.034
0.048
0.032
0.036
0.053
0.056
0.046
0.058
0.063
0.055
0.078
0.092
0.077
0.075
0.096
0.097
0.095
0.117
0.131
0.126
0.132
0.149
0.149
0.146
0.165
0.155
0.141
0.148
0.147
0.116
0.105
0.105
0.075
0.035
0.022
0.001
-0.029
-0.034
-0.035
-0.057
-0.067
-0.056
-0.065
-0.08
-0.067
-0.065
-0.086
-0.073
-0.042
-0.05
-0.061
-0.054
-0.057
-0.068
-0.05
-0.048
-0.063
-0.061
-0.038
-0.048
-0.053
-0.041
-0.042
-0.058
-0.046
-0.04
-0.05
-0.05
-0.038
-0.041
-0.05
-0.037
-0.036
-0.052
-0.039
-0.016
-0.03
-0.033
-0.015
-0.018
-0.039
-0.03
-0.027
-0.046
-0.042
-0.028
-0.039
-0.045
-0.027
-0.031
-0.048
-0.041
-0.03
-0.043
-0.038
-0.016
-0.011
-0.003
0.031
0.055
0.065
0.068
0.076
0.086
0.084
0.096
0.1
0.088
0.078
0.073
0.026
0
0.001
-0.012
-0.029
-0.036
-0.051
-0.079
-0.072
-0.07
-0.095
-0.105
-0.09
-0.097
-0.105
-0.087
-0.091
-0.096
-0.091
-0.078
-0.08
-0.078
-0.052
-0.052
-0.049
0.022
0.112
0.277
0.389
0.26
0.09
-0.031
-0.137
-0.155
-0.195
-0.264
-0.29
-0.239
-0.145
-0.078
-0.076
-0.083
-0.056
-0.044
-0.057
-0.062
-0.038
-0.041
-0.031
-0.013
-0.016
-0.015
0.009
0.011
-0.006
0.009
0.021
0.017
0.006
0.04
0.042
0.028
0.032
0.049
0.044
0.052
0.064
0.056
0.058
0.082
0.091
0.081
0.097
0.117
0.109
0.114
0.136
0.148
0.148
0.161
0.175
0.164
0.17
0.177
0.162
0.156
0.171
0.157
0.126
0.12
0.1
0.068
0.046
0.043
0.011
-0.02
-0.019
-0.031
-0.049
-0.041
-0.042
-0.064
-0.07
-0.057
-0.068
-0.083
-0.071
-0.063
-0.08
-0.077
-0.062
-0.063
-0.069
-0.053
-0.064
-0.076
-0.057
-0.053
-0.071
-0.059
-0.036
-0.048
-0.061
-0.039
-0.034
-0.047
-0.045
-0.03
-0.038
-0.045
-0.024
-0.026
-0.034
-0.025
-0.021
-0.034
-0.027
-0.022
-0.039
-0.04
-0.025
-0.032
-0.041
-0.031
-0.027
-0.041
-0.032
-0.023
-0.036
-0.032
-0.019
-0.018
-0.038
-0.017
0.002
0.002
0.018
0.049
0.07
0.064
0.072
0.084
0.084
0.094
0.112
0.107
0.088
0.086
0.061
0.016
0.012
0.004
-0.019
-0.03
-0.029
-0.058
-0.065
-0.05
-0.061
-0.083
-0.074
-0.06
-0.078
-0.074
-0.062
-0.073
-0.08
-0.064
-0.071
-0.064
-0.051
-0.032
-0.039
-0.012
0.082
0.206
0.378
0.35
0.191
0.065
-0.059
-0.103
-0.121
-0.201
-0.249
-0.248
-0.176
-0.087
-0.042
-0.059
-0.053
-0.03
-0.033
-0.043
-0.033
-0.024
-0.025
-0.017
-0.011
-0.012
-0.006
0.017
0.018
0.013
0.037
0.04
0.021
0.034
0.065
0.057
0.048
0.059
0.07
0.058
0.072
0.081
0.074
0.083
0.098
0.089
0.093
0.118
0.13
0.118
0.142
0.162
0.154
0.143
0.156
0.159
0.156
0.173
0.171
0.16
0.163
0.163
0.132
0.114
0.12
0.095
0.055
0.039
0.032
-0.001
-0.019
-0.023
-0.043
-0.052
-0.034
-0.044
-0.058
-0.057
-0.045
-0.061
-0.056
-0.04
-0.047
-0.062
-0.052
-0.04
-0.058
-0.046
-0.04
-0.049
-0.048
-0.027
-0.04
-0.04
-0.029
-0.018
-0.045
-0.049
-0.031
-0.045
-0.042
-0.031
-0.024
-0.043
-0.029
-0.026
-0.038
-0.04
-0.019
-0.029
-0.029
-0.015
-0.019
-0.037
-0.031
-0.02
-0.033
-0.027
-0.013
-0.02
-0.033
-0.012
-0.015
-0.029
-0.032
-0.013
-0.02
-0.011
0.018
0.033
0.033
0.068
0.09
0.062
0.071
0.102
0.098
0.081
0.108
0.101
0.072
0.057
0.038
0.009
-0.017
-0.004
-0.026
-0.055
-0.061
-0.062
-0.079
-0.072
-0.069
-0.089
-0.104
-0.075
-0.079
-0.095
-0.088
-0.077
-0.093
-0.095
-0.063
-0.069
-0.074
-0.052
-0.026
0.023
0.163
0.385
0.43
0.321
0.241
0.127
-0.001
-0.006
-0.087
-0.224
-0.282
-0.232
-0.16
-0.1
-0.067
-0.069
-0.068
-0.054
-0.055
-0.075
-0.064
-0.027
-0.033
-0.042
-0.034
-0.024
-0.03
-0.015
-0.005
-0.009
-0.004
0.009
0.002
-0.001
0.018
0.027
0.018
0.029
0.042
0.028
0.027
0.046
0.05
0.05
0.068
0.076
0.065
0.079
0.096
0.092
0.096
0.123
0.124
0.117
0.124
0.134
0.12
0.126
0.14
0.13
0.119
0.116
0.103
0.062
0.063
0.055
0.019
-0.002
-0.003
-0.034
-0.062
-0.07
-0.072
-0.095
-0.091
-0.074
-0.08
-0.087
-0.075
-0.079
-0.094
-0.076
-0.071
-0.076
-0.076
-0.058
-0.066
-0.072
-0.054
-0.049
-0.061
-0.054
-0.042
-0.057
-0.056
-0.044
-0.045
-0.053
-0.036
-0.032
-0.045
-0.035
-0.02
-0.036
-0.038
-0.02
-0.027
-0.039
-0.032
-0.021
-0.046
-0.044
-0.031
-0.035
-0.042
-0.02
-0.021
-0.033
-0.03
-0.016
-0.028
-0.026
-0.011
-0.014
-0.022
0.004
0.026
0.027
0.059
0.092
0.074
0.056
0.099
0.112
0.096
0.11
0.12
0.098
0.081
0.063
0.021
-0.003
0.006
0.006
-0.027
-0.04
-0.048
-0.068
-0.075
-0.065
-0.079
-0.084
-0.068
-0.066
-0.082
-0.071
-0.061
-0.072
-0.075
-0.049
-0.049
-0.065
-0.042
-0.027
0.013
0.109
0.314
0.463
0.364
0.238
0.112
-0.037
-0.053
-0.085
-0.201
-0.279
-0.244
-0.163
-0.096
-0.057
-0.052
-0.063
-0.049
-0.032
-0.044
-0.046
-0.025
-0.019
-0.026
-0.014
0.001
-0.006
0.004
0.016
0.018
0.013
0.028
0.025
0.017
0.038
0.044
0.025
0.028
0.056
0.046
0.039
0.057
0.071
0.059
0.07
0.083
0.082
0.082
0.1
0.096
0.097
0.121
0.133
0.121
0.136
0.151
0.14
0.131
0.146
0.143
0.126
0.125
0.119
0.09
0.074
0.075
0.038
0.011
-0.002
-0.022
-0.054
-0.059
-0.057
-0.08
-0.085
-0.075
-0.084
-0.097
-0.083
-0.083
-0.087
-0.078
-0.07
-0.081
-0.085
-0.074
-0.08
-0.095
-0.077
-0.067
-0.082
-0.084
-0.07
-0.073
-0.077
-0.061
-0.069
-0.082
-0.074
-0.061
-0.071
-0.065
-0.048
-0.054
-0.071
-0.051
-0.045
-0.061
-0.062
-0.054
-0.061
-0.07
-0.049
-0.054
-0.063
-0.056
-0.048
-0.07
-0.066
-0.044
-0.049
-0.052
-0.046
-0.047
-0.061
-0.058
-0.047
-0.057
-0.044
-0.007
0.005
0.019
0.058
0.067
0.04
0.066
0.093
0.071
0.07
0.088
0.071
0.036
0.028
0.02
-0.012
-0.027
-0.03
-0.056
-0.086
-0.085
-0.083
-0.099
-0.091
-0.087
-0.101
-0.098
-0.08
-0.09
-0.1
-0.077
-0.08
-0.097
-0.086
-0.052
-0.059
-0.048
-0.02
0.024
0.101
0.265
0.436
0.324
0.141
0.028
-0.119
-0.171
-0.166
-0.232
-0.289
-0.238
-0.13
-0.071
-0.055
-0.041
-0.041
-0.038
-0.021
-0.023
-0.041
-0.022
-0.009
-0.019
-0.019
0.011
0.019
0.009
0.025
0.041
0.035
0.04
0.055
0.05
0.054
0.071
0.076
0.06
0.077
0.087
0.075
0.08
0.106
0.109
0.1
0.112
0.129
0.132
0.149
0.158
0.153
0.167
0.189
0.185
0.174
0.196
0.207
0.191
0.189
0.197
0.182
0.169
0.167
0.142
0.109
0.099
0.082
0.046
0.024
0.019
-0.013
-0.036
-0.024
-0.034
-0.055
-0.059
-0.046
-0.056
-0.061
-0.043
-0.046
-0.059
-0.053
-0.047
-0.068
-0.059
-0.051
-0.06
-0.069
-0.036
-0.039
-0.053
-0.047
-0.034
-0.043
-0.04
-0.033
-0.041
-0.047
-0.037
-0.037
-0.048
-0.037
-0.024
-0.041
-0.042
-0.021
-0.03
-0.043
-0.033
-0.027
-0.034
-0.032
-0.02
-0.031
-0.038
-0.025
-0.028
-0.046
-0.028
-0.023
-0.038
-0.047
-0.028
-0.035
-0.036
-0.01
-0.005
-0.011
0.02
0.054
0.062
0.062
0.068
0.085
0.085
0.098
0.109
0.103
0.091
0.083
0.051
0.03
0.025
0.008
-0.022
-0.027
-0.042
-0.067
-0.06
-0.049
-0.076
-0.085
-0.067
-0.066
-0.074
-0.071
-0.064
-0.076
-0.072
-0.055
-0.063
-0.059
-0.036
-0.025
-0.027
0.008
0.099
0.216
0.388
0.37
0.198
0.065
-0.064
-0.122
-0.148
-0.21
-0.255
-0.251
-0.165
-0.075
-0.045
-0.063
-0.044
-0.029
-0.046
-0.054
-0.039
-0.038
-0.035
-0.019
-0.02
-0.024
-0.011
0.001
-0.019
-0.012
0.014
0.021
0.005
0.019
0.029
0.021
0.02
0.041
0.035
0.036
0.05
0.047
0.034
0.057
0.077
0.06
0.066
0.089
0.104
0.101
0.115
0.125
0.124
0.137
0.157
0.143
0.14
0.157
0.152
0.138
0.143
0.146
0.115
0.102
0.094
0.056
0.023
0.013
-0.011
-0.041
-0.046
-0.047
-0.076
-0.077
-0.069
-0.083
-0.094
-0.078
-0.074
-0.094
-0.087
-0.078
-0.082
-0.084
-0.07
-0.08
-0.085
-0.072
-0.068
-0.081
-0.069
-0.054
-0.072
-0.072
-0.055
-0.055
-0.067
-0.057
-0.043
-0.054
-0.052
-0.025
-0.038
-0.044
-0.032
-0.028
-0.048
-0.042
-0.023
-0.033
-0.033
-0.02
-0.023
-0.038
-0.024
-0.024
-0.024
-0.018
-0.013
-0.029
-0.039
-0.021
-0.026
-0.037
-0.028
-0.01
-0.033
-0.029
-0.013
-0.016
-0.02
0.008
0.013
0.01
0.035
0.071
0.063
0.057
0.09
0.096
0.088
0.113
0.137
0.101
0.075
0.055
0.018
0.003
0.013
-0.01
-0.04
-0.053
-0.054
-0.072
-0.075
-0.062
-0.078
-0.088
-0.075
-0.08
-0.093
-0.083
-0.068
-0.077
-0.079
-0.049
-0.044
-0.049
-0.041
-0.034
-0.019
0.061
0.212
0.398
0.388
0.261
0.171
0.051
-0.005
-0.028
-0.144
-0.239
-0.257
-0.187
-0.112
-0.056
-0.052
-0.068
-0.055
-0.044
-0.059
-0.053
-0.025
-0.027
-0.033
-0.014
-0.013
-0.016
-0.01
0.001
-0.001
0.011
0.03
0.023
0.011
0.024
0.04
0.021
0.035
0.056
0.052
0.043
0.057
0.06
0.05
0.066
0.081
0.072
0.083
0.112
0.108
0.105
0.127
0.132
0.117
0.132
0.152
0.151
0.138
0.146
0.139
0.134
0.145
0.135
0.105
0.091
0.085
0.06
0.032
0.021
0.001
-0.032
-0.035
-0.038
-0.065
-0.068
-0.06
-0.071
-0.079
-0.067
-0.065
-0.084
-0.078
-0.067
-0.069
-0.067
-0.053
-0.059
-0.071
-0.047
-0.036
-0.052
-0.049
-0.039
-0.041
-0.052
-0.033
-0.041
-0.055
-0.041
-0.029
-0.048
-0.044
-0.031
-0.034
-0.044
-0.023
-0.023
-0.042
-0.035
-0.016
-0.037
-0.04
-0.02
-0.026
-0.041
-0.031
-0.026
-0.046
-0.039
-0.027
-0.033
-0.036
-0.011
-0.02
-0.027
0.004
0.04
0.038
0.068
0.068
0.054
0.077
0.094
0.093
0.091
0.096
0.088
0.061
0.022
0.018
-0.009
-0.028
-0.023
-0.034
-0.073
-0.079
-0.073
-0.095
-0.102
-0.087
-0.085
-0.094
-0.084
-0.082
-0.097
-0.092
-0.077
-0.087
-0.091
-0.074
-0.064
-0.071
-0.044
0.027
0.121
0.343
0.471
0.369
0.249
0.147
0.015
-0.018
-0.06
-0.17
-0.275
-0.274
-0.177
-0.103
-0.088
-0.072
-0.059
-0.07
-0.064
-0.041
-0.047
-0.054
-0.035
-0.03
-0.033
-0.018
0.002
-0.011
-0.007
0.02
0.012
0.005
0.016
0.02
0.003
0.018
0.031
0.026
0.024
0.048
0.045
0.039
0.058
0.074
0.059
0.068
0.095
0.09
0.079
0.097
0.119
0.117
0.133
0.142
0.134
0.128
0.151
0.142
0.135
0.152
0.151
0.126
0.111
0.11
0.081
0.058
0.049
0.026
-0.004
-0.006
-0.011
-0.039
-0.049
-0.041
-0.056
-0.074
-0.068
-0.071
-0.078
-0.072
-0.056
-0.075
-0.072
-0.055
-0.062
-0.074
-0.052
-0.056
-0.071
-0.066
-0.053
-0.062
-0.066
-0.046
-0.043
-0.055
-0.042
-0.037
-0.058
-0.053
-0.039
-0.046
-0.055
-0.035
-0.04
-0.051
-0.039
-0.025
-0.043
-0.042
-0.025
-0.035
-0.048
-0.037
-0.031
-0.046
-0.033
-0.025
-0.039
-0.039
-0.014
-0.016
-0.017
0.022
0.053
0.063
0.069
0.07
0.081
0.092
0.103
0.107
0.095
0.094
0.091
0.059
0.03
0.031
0.01
-0.016
-0.022
-0.039
-0.073
-0.072
-0.064
-0.083
-0.087
-0.068
-0.072
-0.092
-0.083
-0.073
-0.085
-0.083
-0.062
-0.068
-0.061
-0.041
-0.045
-0.048
-0.001
0.099
0.231
0.418
0.39
0.204
0.063
-0.073
-0.141
-0.169
-0.224
-0.271
-0.264
-0.174
-0.077
-0.058
-0.059
-0.041
-0.021
-0.039
-0.043
-0.026
-0.025
-0.028
-0.01
-0.009
-0.012
0.009
0.023
0.012
0.024
0.046
0.037
0.024
0.042
0.048
0.034
0.047
0.056
0.047
0.051
0.065
0.059
0.06
0.075
0.087
0.078
0.091
0.117
0.107
0.106
0.13
0.139
0.129
0.145
0.153
0.148
0.152
0.168
0.161
0.15
0.158
0.146
0.111
0.101
0.101
0.064
0.039
0.029
0.009
-0.023
-0.025
-0.04
-0.065
-0.068
-0.055
-0.075
-0.083
-0.065
-0.067
-0.078
-0.069
-0.062
-0.079
-0.086
-0.072
-0.077
-0.085
-0.077
-0.074
-0.087
-0.076
-0.056
-0.068
-0.065
-0.046
-0.052
-0.061
-0.044
-0.036
-0.055
-0.046
-0.035
-0.049
-0.054
-0.036
-0.033
-0.038
-0.026
-0.018
-0.035
-0.032
-0.017
-0.031
-0.041
-0.019
-0.02
-0.039
-0.024
-0.008
-0.028
-0.028
-0.01
-0.01
-0.017
0.012
0.031
0.029
0.061
0.081
0.057
0.057
0.094
0.102
0.086
0.109
0.103
0.074
0.051
0.035
-0.004
-0.021
-0.011
-0.022
-0.052
-0.068
-0.063
-0.081
-0.085
-0.076
-0.081
-0.093
-0.074
-0.072
-0.09
-0.085
-0.069
-0.083
-0.09
-0.055
-0.055
-0.058
-0.037
-0.007
0.046
0.156
0.359
0.393
0.224
0.102
-0.028
-0.153
-0.155
-0.189
-0.269
-0.281
-0.182
-0.09
-0.062
-0.045
-0.044
-0.051
-0.033
-0.022
-0.042
-0.045
-0.017
-0.021
-0.026
-0.015
-0.002
-0.011
-0.011
0.012
0.012
0.007
0.025
0.025
0.012
0.028
0.04
0.028
0.032
0.064
0.055
0.039
0.061
0.067
0.054
0.06
0.083
0.084
0.088
0.108
0.114
0.107
0.134
0.143
0.133
0.143
0.165
0.15
0.134
0.148
0.151
0.13
0.126
0.128
0.078
0.085
0.075
0.034
-0.01
-0.017
-0.039
-0.063
-0.062
-0.044
-0.068
-0.081
-0.069
-0.073
-0.087
-0.077
-0.073
-0.095
-0.094
-0.081
-0.087
-0.091
-0.076
-0.081
-0.095
-0.09
-0.073
-0.086
-0.086
-0.068
-0.074
-0.087
-0.072
-0.062
-0.079
-0.064
-0.056
-0.066
-0.072
-0.051
-0.055
-0.067
-0.06
-0.05
-0.068
-0.061
-0.046
-0.056
-0.058
-0.041
-0.042
-0.054
-0.047
-0.037
-0.053
-0.052
-0.031
-0.043
-0.052
-0.031
-0.026
-0.046
-0.035
-0.013
-0.015
-0.006
0.015
0.022
0.029
0.067
0.083
0.059
0.064
0.104
0.096
0.09
0.114
0.105
0.075
0.059
0.046
0.006
-0.011
0.002
-0.017
-0.05
-0.05
-0.06
-0.078
-0.084
-0.072
-0.085
-0.09
-0.072
-0.079
-0.092
-0.074
-0.063
-0.073
-0.072
-0.052
-0.055
-0.058
-0.033
-0.018
0.022
0.116
0.303
0.397
0.267
0.136
0.012
-0.116
-0.115
-0.146
-0.245
-0.274
-0.205
-0.118
-0.065
-0.038
-0.044
-0.044
-0.024
-0.016
-0.029
-0.018
0.004
-0.001
-0.009
0.013
0.028
0.015
0.027
0.038
0.037
0.044
0.066
0.056
0.054
0.074
0.076
0.062
0.073
0.088
0.079
0.073
0.092
0.095
0.09
0.101
0.105
0.1
0.112
0.13
0.128
0.129
0.155
0.156
0.151
0.166
0.178
0.169
0.174
0.19
0.182
0.168
0.171
0.157
0.129
0.114
0.103
0.058
0.035
0.036
0.011
-0.022
-0.022
-0.03
-0.05
-0.051
-0.044
-0.056
-0.067
-0.054
-0.06
-0.072
-0.056
-0.048
-0.068
-0.062
-0.042
-0.049
-0.055
-0.032
-0.028
-0.048
-0.032
-0.021
-0.032
-0.044
-0.025
-0.026
-0.033
-0.022
-0.016
-0.036
-0.023
-0.01
-0.026
-0.033
-0.015
-0.017
-0.028
-0.019
-0.016
-0.029
-0.028
-0.005
-0.017
-0.022
-0.002
0
-0.027
-0.023
-0.014
-0.026
-0.029
-0.017
-0.017
-0.026
-0.013
-0.005
-0.014
-0.011
0.003
-0.017
-0.02
0.004
0.012
0.021
0.051
0.076
0.085
0.088
0.093
0.097
0.105
0.107
0.109
0.105
0.095
0.095
0.056
0.029
0.026
0.019
-0.002
-0.001
-0.025
-0.06
-0.061
-0.054
-0.067
-0.08
-0.067
-0.065
-0.072
-0.068
-0.061
-0.075
-0.073
-0.064
-0.07
-0.071
-0.06
-0.053
-0.065
-0.027
0.066
0.205
0.392
0.393
0.262
0.156
0.056
-0.001
-0.025
-0.141
-0.243
-0.297
-0.222
-0.123
-0.078
-0.091
-0.075
-0.066
-0.079
-0.082
-0.06
-0.059
-0.063
-0.042
-0.04
-0.049
-0.035
-0.019
-0.029
-0.024
0.003
0.008
-0.011
-0.002
0.009
-0.002
0.008
0.028
0.019
0.017
0.039
0.043
0.038
0.055
0.066
0.047
0.059
0.081
0.081
0.077
0.101
0.112
0.108
0.118
0.123
0.117
0.119
0.134
0.128
0.114
0.128
0.126
0.095
0.087
0.088
0.063
0.03
0.026
0.007
-0.031
-0.044
-0.053
-0.081
-0.081
-0.071
-0.089
-0.097
-0.079
-0.079
-0.093
-0.087
-0.08
-0.087
-0.09
-0.062
-0.07
-0.084
-0.078
-0.072
-0.084
-0.075
-0.061
-0.06
-0.068
-0.045
-0.045
-0.065
-0.052
-0.041
-0.051
-0.047
-0.038
-0.049
-0.052
-0.037
-0.034
-0.046
-0.036
-0.025
-0.039
-0.038
-0.021
-0.022
-0.039
-0.031
-0.032
-0.045
-0.038
-0.016
-0.034
-0.044
-0.032
-0.026
-0.041
-0.029
-0.013
-0.018
-0.006
0.029
0.043
0.061
0.073
0.057
0.073
0.102
0.105
0.097
0.091
0.086
0.066
0.033
0.03
0.019
-0.009
-0.021
-0.038
-0.065
-0.071
-0.062
-0.071
-0.087
-0.082
-0.073
-0.084
-0.085
-0.068
-0.072
-0.085
-0.07
-0.075
-0.085
-0.064
-0.053
-0.065
-0.054
0.007
0.091
0.244
0.445
0.421
0.277
0.185
0.064
-0.005
-0.039
-0.14
-0.249
-0.286
-0.202
-0.117
-0.086
-0.076
-0.06
-0.064
-0.07
-0.06
-0.052
-0.053
-0.036
-0.022
-0.035
-0.026
-0.003
-0.008
-0.015
0.006
0.02
0.005
0.008
0.026
0.019
0.024
0.038
0.042
0.029
0.038
0.048
0.038
0.051
0.073
0.068
0.057
0.079
0.09
0.078
0.095
0.123
0.115
0.117
0.142
0.141
0.135
0.157
0.156
0.141
0.144
0.15
0.127
0.105
0.111
0.087
0.055
0.044
0.035
-0.003
-0.022
-0.025
-0.049
-0.066
-0.059
-0.059
-0.083
-0.069
-0.057
-0.076
-0.087
-0.07
-0.082
-0.093
-0.078
-0.072
-0.083
-0.073
-0.058
-0.062
-0.062
-0.053
-0.057
-0.069
-0.053
-0.049
-0.055
-0.056
-0.043
-0.047
-0.046
-0.034
-0.033
-0.047
-0.037
-0.03
-0.046
-0.039
-0.02
-0.019
-0.025
-0.014
-0.018
-0.031
-0.023
-0.008
-0.017
-0.019
-0.011
-0.012
-0.026
-0.009
0.002
-0.017
-0.013
0.001
-0.003
-0.012
0.013
0.011
0.014
0.042
0.065
0.071
0.087
0.099
0.103
0.114
0.128
0.131
0.117
0.116
0.111
0.074
0.036
0.033
0.012
-0.009
-0.003
-0.007
-0.045
-0.049
-0.033
-0.052
-0.077
-0.066
-0.066
-0.08
-0.059
-0.047
-0.063
-0.068
-0.049
-0.056
-0.049
-0.028
-0.021
-0.03
-0.005
0.081
0.176
0.374
0.462
0.305
0.137
0.008
-0.114
-0.142
-0.182
-0.231
-0.264
-0.2
-0.096
-0.046
-0.053
-0.047
-0.02
-0.029
-0.024
-0.016
-0.018
-0.021
0.003
0.003
-0.007
0.006
0.023
0.009
0.013
0.04
0.038
0.024
0.034
0.048
0.037
0.045
0.051
0.052
0.046
0.068
0.066
0.047
0.067
0.088
0.074
0.076
0.1
0.104
0.093
0.119
0.136
0.128
0.142
0.151
0.154
0.155
0.172
0.162
0.146
0.155
0.156
0.125
0.117
0.116
0.081
0.046
0.032
0.014
-0.019
-0.029
-0.04
-0.067
-0.071
-0.064
-0.082
-0.096
-0.079
-0.071
-0.091
-0.085
-0.073
-0.086
-0.083
-0.072
-0.065
-0.088
-0.08
-0.074
-0.085
-0.084
-0.063
-0.076
-0.086
-0.067
-0.058
-0.075
-0.071
-0.058
-0.074
-0.078
-0.07
-0.074
-0.085
-0.057
-0.054
-0.068
-0.065
-0.045
-0.06
-0.065
-0.055
-0.06
-0.078
-0.068
-0.056
-0.078
-0.075
-0.068
-0.079
-0.081
-0.064
-0.072
-0.086
-0.074
-0.064
-0.077
-0.074
-0.057
-0.064
-0.075
-0.059
-0.042
-0.049
-0.016
0.018
0.03
0.044
0.056
0.05
0.059
0.083
0.087
0.082
0.088
0.09
0.061
0.031
0.023
0.002
-0.022
-0.022
-0.036
-0.061
-0.073
-0.06
-0.082
-0.097
-0.08
-0.08
-0.097
-0.086
-0.072
-0.084
-0.091
-0.079
-0.077
-0.088
-0.06
-0.04
-0.044
-0.036
0.015
0.08
0.211
0.409
0.358
0.172
0.074
-0.056
-0.137
-0.147
-0.201
-0.262
-0.259
-0.158
-0.074
-0.065
-0.055
-0.039
-0.043
-0.036
-0.029
-0.033
-0.035
-0.012
-0.004
-0.017
-0.002
0.022
0.012
-0.001
0.023
0.033
0.031
0.037
0.052
0.051
0.049
0.065
0.059
0.05
0.066
0.07
0.05
0.078
0.101
0.087
0.084
0.112
0.124
0.116
0.127
0.144
0.144
0.156
0.166
0.155
0.153
0.173
0.174
0.156
0.173
0.179
0.151
0.129
0.131
0.106
0.074
0.062
0.036
0.003
-0.005
-0.013
-0.04
-0.051
-0.044
-0.055
-0.085
-0.073
-0.071
-0.084
-0.083
-0.063
-0.07
-0.077
-0.06
-0.06
-0.072
-0.059
-0.044
-0.061
-0.061
-0.037
-0.042
-0.057
-0.032
-0.034
-0.05
-0.047
-0.031
-0.038
-0.039
-0.02
-0.028
-0.042
-0.022
-0.012
-0.034
-0.032
-0.017
-0.023
-0.032
-0.016
-0.016
-0.022
-0.016
-0.009
-0.032
-0.027
-0.016
-0.028
-0.033
-0.012
-0.005
-0.024
-0.02
-0.006
-0.029
-0.035
-0.018
-0.032
-0.043
-0.034
-0.029
-0.035
-0.02
0.008
0.006
0.014
0.042
0.065
0.068
0.074
0.076
0.086
0.09
0.106
0.107
0.094
0.088
0.066
0.023
0.01
0.007
-0.013
-0.028
-0.031
-0.053
-0.084
-0.078
-0.088
-0.108
-0.103
-0.081
-0.09
-0.099
-0.086
-0.088
-0.098
-0.089
-0.083
-0.085
-0.073
-0.055
-0.058
-0.06
0.007
0.093
0.245
0.401
0.308
0.142
0.027
-0.081
-0.115
-0.157
-0.226
-0.267
-0.238
-0.134
-0.054
-0.053
-0.06
-0.029
-0.018
-0.035
-0.032
-0.02
-0.027
-0.019
-0.001
-0.004
0.006
0.03
0.04
0.019
0.033
0.047
0.037
0.03
0.065
0.068
0.051
0.049
0.058
0.047
0.057
0.073
0.063
0.063
0.092
0.083
0.075
0.099
0.123
0.123
0.126
0.146
0.136
0.132
0.157
0.159
0.143
0.142
0.166
0.148
0.144
0.155
0.144
0.121
0.123
0.11
0.061
0.042
0.031
-0.009
-0.023
-0.027
-0.043
-0.059
-0.055
-0.06
-0.084
-0.083
-0.068
-0.074
-0.089
-0.075
-0.079
-0.088
-0.08
-0.066
-0.084
-0.082
-0.066
-0.064
-0.077
-0.059
-0.045
-0.059
-0.058
-0.045
-0.061
-0.068
-0.051
-0.053
-0.061
-0.05
-0.039
-0.055
-0.055
-0.038
-0.043
-0.047
-0.028
-0.021
-0.044
-0.037
-0.032
-0.053
-0.057
-0.035
-0.047
-0.052
-0.035
-0.024
-0.042
-0.041
-0.027
-0.033
-0.04
-0.029
-0.025
-0.038
-0.022
-0.016
-0.027
-0.025
0.003
-0.004
0.003
0.034
0.052
0.054
0.085
0.093
0.072
0.099
0.122
0.122
0.121
0.129
0.107
0.072
0.041
0.031
0
-0.011
-0.003
-0.022
-0.063
-0.059
-0.054
-0.068
-0.073
-0.062
-0.071
-0.074
-0.065
-0.073
-0.084
-0.067
-0.056
-0.073
-0.074
-0.054
-0.056
-0.061
-0.034
0.027
0.117
0.326
0.47
0.382
0.265
0.18
0.042
0.001
-0.038
-0.16
-0.275
-0.272
-0.182
-0.12
-0.093
-0.08
-0.062
-0.064
-0.056
-0.05
-0.052
-0.047
-0.03
-0.034
-0.037
-0.018
-0.001
-0.014
-0.009
0.015
0
-0.004
0.01
0.01
0.005
0.022
0.027
0.019
0.027
0.047
0.039
0.027
0.049
0.058
0.046
0.071
0.096
0.089
0.092
0.111
0.108
0.101
0.126
0.13
0.122
0.136
0.15
0.137
0.13
0.15
0.137
0.119
0.116
0.106
0.073
0.056
0.049
0.025
-0.005
-0.006
-0.028
-0.049
-0.049
-0.043
-0.071
-0.078
-0.065
-0.07
-0.08
-0.054
-0.057
-0.074
-0.064
-0.047
-0.058
-0.06
-0.04
-0.047
-0.06
-0.047
-0.037
-0.051
-0.046
-0.025
-0.036
-0.041
-0.025
-0.022
-0.044
-0.033
-0.026
-0.039
-0.041
-0.021
-0.035
-0.039
-0.023
-0.022
-0.039
-0.039
-0.028
-0.042
-0.054
-0.036
-0.047
-0.056
-0.038
-0.034
-0.044
-0.041
-0.03
-0.046
-0.049
-0.031
-0.033
-0.04
-0.02
0.012
0.012
0.043
0.077
0.064
0.055
0.091
0.096
0.083
0.101
0.11
0.078
0.056
0.037
0.008
-0.019
-0.016
-0.023
-0.059
-0.073
-0.064
-0.077
-0.091
-0.078
-0.087
-0.106
-0.096
-0.082
-0.099
-0.1
-0.076
-0.082
-0.091
-0.072
-0.066
-0.075
-0.066
-0.036
0.013
0.117
0.348
0.461
0.332
0.217
0.1
-0.052
-0.06
-0.093
-0.213
-0.3
-0.262
-0.177
-0.112
-0.079
-0.067
-0.081
-0.074
-0.055
-0.063
-0.066
-0.041
-0.028
-0.042
-0.031
-0.012
-0.016
-0.014
0.004
0.009
0.004
0.018
0.031
0.021
0.031
0.049
0.036
0.025
0.04
0.048
0.032
0.047
0.061
0.054
0.062
0.093
0.098
0.09
0.112
0.124
0.124
0.134
0.153
0.145
0.149
0.165
0.161
0.147
0.163
0.169
0.143
0.143
0.14
0.108
0.078
0.069
0.047
0.014
0.005
0.002
-0.026
-0.036
-0.029
-0.043
-0.061
-0.054
-0.057
-0.077
-0.067
-0.054
-0.062
-0.065
-0.048
-0.05
-0.06
-0.045
-0.041
-0.053
-0.047
-0.029
-0.047
-0.05
-0.029
-0.03
-0.046
-0.038
-0.02
-0.032
-0.038
-0.02
-0.035
-0.039
-0.026
-0.021
-0.037
-0.022
-0.011
-0.025
-0.019
0.003
-0.009
-0.027
-0.011
-0.017
-0.024
-0.022
-0.008
-0.023
-0.03
-0.015
-0.016
-0.032
-0.019
-0.015
-0.034
-0.031
-0.011
-0.011
-0.01
0.023
0.042
0.046
0.078
0.094
0.074
0.088
0.111
0.097
0.094
0.115
0.101
0.062
0.043
0.03
0.003
-0.013
-0.011
-0.032
-0.064
-0.06
-0.056
-0.087
-0.088
-0.075
-0.085
-0.097
-0.09
-0.09
-0.1
-0.08
-0.075
-0.097
-0.09
-0.059
-0.053
-0.053
-0.024
0.019
0.092
0.251
0.437
0.353
0.171
0.063
-0.087
-0.161
-0.163
-0.222
-0.291
-0.257
-0.14
-0.075
-0.073
-0.059
-0.05
-0.054
-0.038
-0.028
-0.039
-0.031
-0.012
-0.018
-0.029
0.001
0.023
0.008
0.003
0.024
0.03
0.031
0.044
0.043
0.026
0.045
0.058
0.037
0.053
0.071
0.058
0.05
0.077
0.082
0.068
0.081
0.107
0.106
0.113
0.131
0.129
0.136
0.153
0.158
0.137
0.157
0.173
0.159
0.156
0.175
0.161
0.148
0.144
0.131
0.095
0.08
0.075
0.037
0.001
-0.007
-0.021
-0.054
-0.048
-0.056
-0.079
-0.083
-0.067
-0.078
-0.09
-0.08
-0.074
-0.091
-0.084
-0.072
-0.084
-0.079
-0.069
-0.074
-0.086
-0.07
-0.065
-0.072
-0.07
-0.059
-0.067
-0.072
-0.053
-0.053
-0.067
-0.061
-0.054
-0.068
-0.065
-0.044
-0.045
-0.055
-0.03
-0.028
-0.047
-0.051
-0.035
-0.048
-0.053
-0.037
-0.043
-0.058
-0.046
-0.038
-0.051
-0.051
-0.036
-0.041
-0.049
-0.032
-0.036
-0.046
-0.041
-0.031
-0.042
-0.026
0.014
0.029
0.041
0.056
0.045
0.049
0.07
0.08
0.075
0.075
0.071
0.057
0.021
0.007
0
-0.023
-0.03
-0.028
-0.057
-0.076
-0.066
-0.072
-0.092
-0.083
-0.074
-0.083
-0.08
-0.065
-0.072
-0.081
-0.068
-0.063
-0.077
-0.05
-0.03
-0.039
-0.034
-0.002
0.071
0.17
0.377
0.411
0.24
0.123
0.007
-0.106
-0.121
-0.166
-0.24
-0.265
-0.172
-0.063
-0.046
-0.046
-0.036
-0.033
-0.04
-0.023
-0.023
-0.027
-0.011
0.003
-0.013
-0.012
0.017
0.015
0
0.016
0.033
0.025
0.027
0.048
0.043
0.037
0.043
0.041
0.03
0.046
0.059
0.04
0.049
0.07
0.07
0.065
0.089
0.098
0.092
0.108
0.123
0.119
0.119
0.148
0.141
0.138
0.155
0.163
0.149
0.15
0.158
0.137
0.12
0.118
0.101
0.067
0.054
0.033
-0.008
-0.022
-0.023
-0.045
-0.062
-0.054
-0.063
-0.092
-0.086
-0.077
-0.09
-0.093
-0.08
-0.076
-0.083
-0.072
-0.077
-0.095
-0.08
-0.063
-0.079
-0.086
-0.06
-0.039
-0.093
-0.067
-0.069
-0.079
-0.065
-0.046
-0.053
-0.068
-0.052
-0.054
-0.063
-0.05
-0.037
-0.05
-0.045
-0.031
-0.029
-0.04
-0.027
-0.023
-0.039
-0.03
-0.015
-0.029
-0.046
-0.028
-0.028
-0.04
-0.032
-0.025
-0.04
-0.04
-0.026
-0.037
-0.041
-0.021
-0.02
-0.034
-0.012
0.013
0.017
0.024
0.057
0.075
0.064
0.075
0.105
0.103
0.108
0.127
0.112
0.093
0.092
0.063
0.016
0.023
0.016
-0.018
-0.048
-0.051
-0.065
-0.072
-0.066
-0.07
-0.09
-0.08
-0.067
-0.086
-0.089
-0.072
-0.074
-0.086
-0.066
-0.061
-0.062
-0.056
-0.034
-0.048
-0.028
0.069
0.203
0.382
0.378
0.241
0.13
0.014
-0.05
-0.071
-0.179
-0.255
-0.271
-0.196
-0.103
-0.054
-0.069
-0.071
-0.053
-0.049
-0.061
-0.048
-0.031
-0.032
-0.019
-0.014
-0.014
-0.009
0.009
0.005
0.003
0.024
0.04
0.024
0.03
0.048
0.038
0.029
0.051
0.056
0.046
0.063
0.076
0.067
0.07
0.1
0.093
0.085
0.109
0.123
0.105
0.125
0.143
0.136
0.149
0.168
0.167
0.155
0.168
0.169
0.151
0.15
0.159
0.132
0.111
0.119
0.095
0.061
0.037
0.032
-0.003
-0.016
-0.021
-0.041
-0.061
-0.054
-0.059
-0.073
-0.064
-0.05
-0.071
-0.07
-0.052
-0.062
-0.074
-0.061
-0.058
-0.072
-0.063
-0.044
-0.055
-0.066
-0.056
-0.05
-0.064
-0.054
-0.038
-0.047
-0.043
-0.028
-0.033
-0.045
-0.035
-0.034
-0.049
-0.033
-0.021
-0.027
-0.03
-0.013
-0.026
-0.041
-0.027
-0.023
-0.04
-0.036
-0.031
-0.045
-0.051
-0.032
-0.032
-0.047
-0.037
-0.033
-0.046
-0.034
-0.01
-0.012
-0.007
0.027
0.049
0.057
0.056
0.086
0.083
0.088
0.106
0.119
0.086
0.082
0.069
0.018
-0.006
0.007
-0.02
-0.044
-0.043
-0.059
-0.073
-0.072
-0.076
-0.101
-0.101
-0.085
-0.098
-0.097
-0.083
-0.09
-0.1
-0.094
-0.076
-0.074
-0.067
-0.046
-0.053
-0.046
0.036
0.167
0.377
0.458
0.37
0.26
0.143
0.042
0.02
-0.067
-0.192
-0.269
-0.254
-0.177
-0.101
-0.093
-0.095
-0.068
-0.055
-0.067
-0.059
-0.042
-0.048
-0.051
-0.03
-0.032
-0.035
-0.01
-0.007
-0.018
-0.003
0.015
0.002
0.002
0.023
0.027
0.017
0.033
0.047
0.042
0.042
0.06
0.05
0.053
0.071
0.079
0.069
0.084
0.102
0.095
0.103
0.128
0.126
0.12
0.143
0.148
0.135
0.147
0.155
0.142
0.134
0.141
0.13
0.105
0.095
0.084
0.044
0.029
0.019
-0.019
-0.039
-0.038
-0.047
-0.072
-0.07
-0.055
-0.067
-0.068
-0.052
-0.071
-0.082
-0.065
-0.061
-0.079
-0.073
-0.059
-0.066
-0.073
-0.051
-0.052
-0.057
-0.046
-0.043
-0.054
-0.052
-0.039
-0.054
-0.059
-0.043
-0.042
-0.057
-0.038
-0.03
-0.048
-0.055
-0.036
-0.036
-0.046
-0.04
-0.042
-0.056
-0.048
-0.028
-0.039
-0.042
-0.032
-0.042
-0.058
-0.042
-0.039
-0.054
-0.044
-0.023
-0.019
-0.006
0.028
0.053
0.048
0.055
0.087
0.088
0.078
0.094
0.093
0.067
0.065
0.045
0.01
-0.011
-0.01
-0.029
-0.043
-0.044
-0.063
-0.079
-0.069
-0.066
-0.088
-0.086
-0.078
-0.084
-0.094
-0.073
-0.078
-0.09
-0.075
-0.061
-0.063
-0.048
-0.029
-0.034
-0.013
0.081
0.219
0.401
0.409
0.257
0.124
-0.022
-0.095
-0.115
-0.2
-0.255
-0.259
-0.188
-0.101
-0.047
-0.052
-0.046
-0.021
-0.015
-0.033
-0.015
-0.002
-0.01
-0.006
0.011
0.007
0.014
0.026
0.03
0.031
0.051
0.067
0.048
0.05
0.073
0.064
0.051
0.066
0.076
0.071
0.088
0.095
0.08
0.084
0.101
0.104
0.094
0.114
0.135
0.122
0.137
0.164
0.156
0.152
0.169
0.17
0.156
0.166
0.18
0.163
0.158
0.161
0.138
0.114
0.109
0.087
0.044
0.03
0.024
-0.004
-0.029
-0.029
-0.044
-0.059
-0.061
-0.054
-0.081
-0.082
-0.068
-0.078
-0.077
-0.056
-0.057
-0.081
-0.068
-0.064
-0.073
-0.073
-0.055
-0.063
-0.073
-0.055
-0.041
-0.055
-0.053
-0.039
-0.059
-0.066
-0.05
-0.049
-0.063
-0.042
-0.032
-0.045
-0.037
-0.019
-0.033
-0.044
-0.032
-0.04
-0.055
-0.044
-0.033
-0.04
-0.036
-0.018
-0.033
-0.048
-0.039
-0.04
-0.058
-0.048
-0.031
-0.046
-0.046
-0.015
-0.006
-0.003
0.025
0.059
0.061
0.062
0.085
0.098
0.088
0.102
0.107
0.086
0.083
0.07
0.018
-0.008
0
-0.007
-0.038
-0.035
-0.056
-0.086
-0.087
-0.088
-0.097
-0.107
-0.086
-0.091
-0.106
-0.095
-0.084
-0.092
-0.084
-0.075
-0.074
-0.076
-0.059
-0.051
-0.048
0.032
0.137
0.318
0.388
0.258
0.103
-0.026
-0.132
-0.149
-0.216
-0.28
-0.291
-0.231
-0.136
-0.072
-0.061
-0.075
-0.055
-0.046
-0.059
-0.054
-0.028
-0.036
-0.042
-0.022
-0.015
-0.021
-0.003
-0.002
-0.011
0.005
0.027
0.018
0.012
0.037
0.043
0.03
0.035
0.056
0.044
0.04
0.055
0.06
0.06
0.085
0.088
0.075
0.094
0.11
0.1
0.098
0.131
0.135
0.126
0.137
0.151
0.142
0.149
0.159
0.151
0.146
0.146
0.134
0.106
0.103
0.088
0.048
0.025
0.031
0.001
-0.032
-0.036
-0.04
-0.066
-0.061
-0.059
-0.079
-0.085
-0.063
-0.07
-0.09
-0.078
-0.066
-0.077
-0.074
-0.064
-0.081
-0.086
-0.072
-0.068
-0.078
-0.064
-0.05
-0.065
-0.067
-0.056
-0.062
-0.07
-0.045
-0.04
-0.055
-0.047
-0.033
-0.05
-0.049
-0.035
-0.035
-0.045
-0.032
-0.027
-0.048
-0.036
-0.018
-0.032
-0.049
-0.039
-0.04
-0.052
-0.041
-0.03
-0.052
-0.055
-0.041
-0.053
-0.062
-0.048
-0.048
-0.063
-0.047
-0.015
-0.01
0
0.036
0.054
0.051
0.055
0.079
0.078
0.086
0.101
0.095
0.067
0.066
0.043
-0.002
-0.007
-0.007
-0.031
-0.053
-0.056
-0.078
-0.095
-0.083
-0.089
-0.111
-0.107
-0.094
-0.108
-0.111
-0.093
-0.096
-0.104
-0.086
-0.083
-0.081
-0.071
-0.051
-0.059
-0.042
0.047
0.15
0.332
0.381
0.244
0.111
-0.006
-0.1
-0.115
-0.186
-0.245
-0.264
-0.195
-0.103
-0.048
-0.061
-0.062
-0.038
-0.034
-0.043
-0.031
-0.014
-0.025
-0.01
0.004
0.002
0.009
0.027
0.025
0.019
0.046
0.051
0.029
0.045
0.067
0.07
0.056
0.073
0.079
0.073
0.086
0.096
0.085
0.089
0.115
0.113
0.111
0.133
0.144
0.127
0.137
0.164
0.164
0.16
0.185
0.181
0.167
0.185
0.189
0.179
0.181
0.181
0.155
0.133
0.131
0.113
0.069
0.056
0.045
0.012
-0.002
-0.003
-0.032
-0.042
-0.031
-0.04
-0.063
-0.057
-0.039
-0.055
-0.056
-0.042
-0.048
-0.066
-0.048
-0.041
-0.059
-0.061
-0.047
-0.044
-0.051
-0.036
-0.033
-0.044
-0.028
-0.03
-0.043
-0.041
-0.025
-0.032
-0.044
-0.032
-0.03
-0.04
-0.035
-0.018
-0.027
-0.025
-0.011
-0.027
-0.034
-0.019
-0.008
-0.039
-0.035
-0.019
-0.033
-0.038
-0.032
-0.037
-0.059
-0.034
-0.025
-0.037
-0.039
-0.02
-0.029
-0.031
-0.018
-0.015
-0.024
-0.016
0.021
0.034
0.057
0.082
0.067
0.059
0.101
0.107
0.088
0.103
0.12
0.092
0.068
0.051
0.026
-0.005
-0.001
-0.012
-0.05
-0.064
-0.068
-0.069
-0.082
-0.07
-0.074
-0.088
-0.074
-0.066
-0.083
-0.076
-0.056
-0.065
-0.078
-0.06
-0.046
-0.058
-0.046
-0.019
0.028
0.129
0.363
0.466
0.371
0.276
0.186
0.044
0.019
-0.039
-0.188
-0.292
-0.27
-0.186
-0.133
-0.095
-0.085
-0.092
-0.093
-0.072
-0.07
-0.07
-0.047
-0.043
-0.059
-0.047
-0.025
-0.023
-0.026
-0.013
-0.008
-0.015
0.007
0.008
0.002
-0.002
0.024
0.02
0.02
0.04
0.045
0.036
0.053
0.073
0.062
0.065
0.076
0.079
0.076
0.101
0.116
0.108
0.124
0.152
0.14
0.137
0.155
0.149
0.138
0.151
0.158
0.134
0.132
0.129
0.101
0.074
0.076
0.053
0.015
0.001
-0.01
-0.042
-0.053
-0.052
-0.077
-0.086
-0.07
-0.064
-0.08
-0.068
-0.065
-0.082
-0.086
-0.072
-0.072
-0.082
-0.069
-0.066
-0.081
-0.07
-0.054
-0.061
-0.068
-0.054
-0.056
-0.069
-0.057
-0.041
-0.053
-0.049
-0.028
-0.035
-0.05
-0.036
-0.028
-0.049
-0.041
-0.029
-0.04
-0.039
-0.032
-0.043
-0.062
-0.045
-0.032
-0.045
-0.041
-0.025
-0.037
-0.046
-0.035
-0.037
-0.05
-0.04
-0.026
-0.034
-0.013
0.021
0.038
0.051
0.063
0.054
0.065
0.083
0.085
0.073
0.075
0.077
0.053
0.012
0.009
-0.004
-0.031
-0.037
-0.044
-0.077
-0.1
-0.08
-0.087
-0.104
-0.102
-0.093
-0.107
-0.102
-0.094
-0.108
-0.117
-0.096
-0.094
-0.105
-0.082
-0.071
-0.08
-0.066
-0.006
0.078
0.232
0.427
0.39
0.223
0.116
-0.015
-0.085
-0.117
-0.192
-0.278
-0.305
-0.206
-0.12
-0.088
-0.08
-0.063
-0.063
-0.061
-0.031
-0.023
-0.031
-0.019
-0.002
-0.014
-0.007
0.018
0.018
0.003
0.028
0.037
0.023
0.03
0.05
0.051
0.053
0.06
0.052
0.044
0.065
0.069
0.044
0.059
0.083
0.075
0.076
0.105
0.112
0.108
0.125
0.14
0.137
0.151
0.17
0.165
0.165
0.183
0.187
0.162
0.174
0.178
0.151
0.132
0.134
0.114
0.079
0.063
0.053
0.018
0
0.001
-0.021
-0.035
-0.027
-0.038
-0.061
-0.044
-0.035
-0.051
-0.051
-0.031
-0.045
-0.053
-0.036
-0.039
-0.051
-0.04
-0.034
-0.047
-0.051
-0.03
-0.033
-0.041
-0.026
-0.015
-0.03
-0.031
-0.018
-0.024
-0.026
-0.007
-0.011
-0.03
-0.02
-0.009
-0.018
-0.015
0.001
-0.015
-0.03
-0.012
-0.01
-0.029
-0.025
-0.005
-0.025
-0.026
-0.01
-0.016
-0.028
-0.018
-0.015
-0.034
-0.028
-0.014
-0.025
-0.027
0.008
0.006
0
0.031
0.062
0.069
0.079
0.089
0.091
0.093
0.101
0.106
0.097
0.086
0.074
0.044
0.015
0.018
0
-0.032
-0.041
-0.056
-0.083
-0.082
-0.077
-0.098
-0.104
-0.09
-0.087
-0.103
-0.089
-0.085
-0.101
-0.1
-0.08
-0.087
-0.079
-0.055
-0.048
-0.052
-0.006
0.083
0.181
0.363
0.361
0.192
0.053
-0.074
-0.166
-0.188
-0.235
-0.275
-0.282
-0.196
-0.098
-0.072
-0.088
-0.075
-0.055
-0.066
-0.062
-0.049
-0.047
-0.044
-0.028
-0.035
-0.036
-0.017
-0.008
-0.027
-0.014
0.015
0.014
-0.004
0.007
0.02
0.016
0.031
0.046
0.044
0.045
0.063
0.052
0.047
0.067
0.072
0.061
0.081
0.104
0.101
0.102
0.127
0.14
0.137
0.148
0.155
0.147
0.154
0.176
0.16
0.155
0.173
0.161
0.126
0.119
0.116
0.071
0.043
0.034
0.013
-0.013
-0.02
-0.035
-0.057
-0.055
-0.048
-0.068
-0.079
-0.055
-0.059
-0.071
-0.06
-0.054
-0.077
-0.065
-0.061
-0.066
-0.076
-0.053
-0.047
-0.063
-0.05
-0.036
-0.062
-0.064
-0.05
-0.051
-0.059
-0.049
-0.04
-0.061
-0.054
-0.04
-0.046
-0.051
-0.035
-0.052
-0.058
-0.04
-0.027
-0.047
-0.047
-0.035
-0.046
-0.052
-0.033
-0.035
-0.059
-0.051
-0.035
-0.06
-0.063
-0.053
-0.064
-0.072
-0.055
-0.041
-0.054
-0.042
-0.031
-0.039
-0.026
0.002
0.013
0.022
0.049
0.042
0.043
0.07
0.074
0.057
0.069
0.074
0.046
0.01
-0.014
-0.022
-0.046
-0.052
-0.048
-0.07
-0.09
-0.076
-0.087
-0.105
-0.109
-0.097
-0.112
-0.11
-0.093
-0.106
-0.113
-0.105
-0.098
-0.099
-0.084
-0.062
-0.07
-0.072
-0.036
0.016
0.098
0.313
0.42
0.311
0.2
0.108
-0.032
-0.056
-0.105
-0.216
-0.299
-0.247
-0.152
-0.101
-0.083
-0.065
-0.07
-0.076
-0.058
-0.046
-0.055
-0.043
-0.029
-0.039
-0.033
-0.015
-0.018
-0.027
-0.001
0.01
0.01
0.014
0.027
0.024
0.019
0.031
0.043
0.036
0.053
0.066
0.05
0.051
0.076
0.079
0.08
0.106
0.114
0.106
0.114
0.139
0.134
0.149
0.164
0.163
0.158
0.179
0.184
0.16
0.174
0.192
0.175
0.15
0.143
0.124
0.09
0.081
0.075
0.038
0.029
0.026
-0.006
-0.029
-0.028
-0.026
-0.054
-0.051
-0.034
-0.049
-0.054
-0.03
-0.028
-0.046
-0.046
-0.046
-0.069
-0.055
-0.033
-0.054
-0.054
-0.031
-0.033
-0.051
-0.04
-0.033
-0.042
-0.045
-0.026
-0.033
-0.038
-0.026
-0.029
-0.043
-0.035
-0.022
-0.034
-0.034
-0.019
-0.026
-0.038
-0.024
-0.024
-0.038
-0.029
-0.009
-0.019
-0.023
-0.015
-0.025
-0.037
-0.025
-0.018
-0.031
-0.021
-0.012
-0.012
-0.014
0.022
0.039
0.035
0.068
0.079
0.059
0.084
0.118
0.1
0.093
0.116
0.097
0.07
0.06
0.049
0.012
-0.008
-0.011
-0.026
-0.064
-0.059
-0.052
-0.077
-0.082
-0.074
-0.081
-0.084
-0.065
-0.066
-0.081
-0.073
-0.065
-0.079
-0.075
-0.036
-0.048
-0.055
-0.022
0.027
0.098
0.261
0.457
0.419
0.267
0.158
-0.009
-0.095
-0.104
-0.184
-0.279
-0.278
-0.181
-0.116
-0.082
-0.065
-0.06
-0.067
-0.054
-0.037
-0.051
-0.047
-0.029
-0.027
-0.031
-0.006
-0.001
-0.017
-0.011
0.006
-0.001
0.003
0.02
0.019
0.017
0.039
0.049
0.033
0.043
0.057
0.048
0.034
0.059
0.06
0.058
0.078
0.102
0.093
0.097
0.125
0.121
0.125
0.141
0.15
0.141
0.16
0.169
0.152
0.153
0.171
0.154
0.133
0.138
0.12
0.083
0.066
0.059
0.015
-0.014
-0.015
-0.031
-0.059
-0.049
-0.044
-0.065
-0.072
-0.061
-0.071
-0.075
-0.056
-0.054
-0.067
-0.055
-0.038
-0.05
-0.048
-0.038
-0.045
-0.052
-0.036
-0.023
-0.04
-0.03
-0.019
-0.032
-0.03
-0.011
-0.013
-0.032
-0.019
-0.005
-0.026
-0.012
-0.005
-0.014
-0.023
-0.001
-0.002
-0.01
-0.009
-0.002
-0.018
-0.018
-0.003
-0.011
-0.018
-0.003
0.002
-0.017
-0.006
-0.004
-0.02
-0.027
-0.005
-0.007
-0.005
0.023
0.046
0.049
0.076
0.087
0.069
0.086
0.123
0.121
0.108
0.123
0.111
0.081
0.067
0.068
0.037
0.019
0.02
0.001
-0.038
-0.04
-0.03
-0.049
-0.06
-0.053
-0.064
-0.073
-0.052
-0.056
-0.068
-0.06
-0.042
-0.065
-0.068
-0.037
-0.033
-0.036
-0.008
0.046
0.117
0.26
0.452
0.386
0.188
0.084
-0.078
-0.189
-0.186
-0.225
-0.279
-0.242
-0.126
-0.066
-0.053
-0.054
-0.043
-0.055
-0.042
-0.031
-0.039
-0.036
-0.008
0.001
-0.025
-0.019
-0.007
-0.015
-0.001
0.019
0.024
0.013
0.03
0.036
0.028
0.042
0.043
0.033
0.046
0.057
0.048
0.039
0.063
0.077
0.071
0.083
0.094
0.092
0.099
0.118
0.116
0.112
0.139
0.143
0.137
0.15
0.169
0.156
0.138
0.158
0.149
0.12
0.113
0.1
0.065
0.042
0.032
0.003
-0.025
-0.024
-0.049
-0.077
-0.076
-0.073
-0.091
-0.109
-0.088
-0.096
-0.107
-0.094
-0.082
-0.095
-0.09
-0.09
-0.099
-0.102
-0.084
-0.095
-0.114
-0.088
-0.077
-0.095
-0.085
-0.063
-0.075
-0.08
-0.067
-0.081
-0.091
-0.069
-0.061
-0.067
-0.062
-0.05
-0.067
-0.076
-0.055
-0.052
-0.072
-0.059
-0.05
-0.069
-0.069
-0.058
-0.059
-0.073
-0.062
-0.058
-0.074
-0.066
-0.05
-0.061
-0.068
-0.054
-0.038
-0.051
-0.028
-0.003
-0.001
0.026
0.044
0.025
0.02
0.061
0.059
0.045
0.064
0.065
0.038
0.026
0.007
-0.022
-0.039
-0.036
-0.047
-0.079
-0.081
-0.08
-0.093
-0.105
-0.093
-0.095
-0.104
-0.089
-0.089
-0.099
-0.091
-0.075
-0.1
-0.105
-0.07
-0.065
-0.07
-0.049
-0.007
0.068
0.178
0.39
0.403
0.221
0.111
-0.042
-0.177
-0.183
-0.21
-0.279
-0.266
-0.16
-0.082
-0.066
-0.04
-0.044
-0.05
-0.035
-0.028
-0.032
-0.027
-0.003
-0.013
-0.015
-0.004
0.012
-0.005
0
0.023
0.022
0.015
0.031
0.024
0.009
0.028
0.046
0.032
0.043
0.065
0.054
0.045
0.071
0.084
0.072
0.08
0.093
0.097
0.097
0.122
0.124
0.121
0.145
0.145
0.131
0.134
0.154
0.149
0.131
0.152
0.149
0.124
0.115
0.119
0.085
0.056
0.048
0.015
-0.02
-0.021
-0.031
-0.068
-0.061
-0.06
-0.083
-0.089
-0.075
-0.082
-0.105
-0.094
-0.083
-0.089
-0.089
-0.074
-0.088
-0.084
-0.07
-0.066
-0.086
-0.071
-0.06
-0.074
-0.066
-0.055
-0.066
-0.077
-0.05
-0.056
-0.063
-0.05
-0.038
-0.063
-0.057
-0.049
-0.043
-0.058
-0.046
-0.027
-0.059
-0.042
-0.033
-0.045
-0.054
-0.044
-0.041
-0.055
-0.046
-0.03
-0.044
-0.037
-0.02
-0.039
-0.051
-0.03
-0.019
-0.032
-0.004
0.025
0.034
0.055
0.074
0.051
0.068
0.091
0.094
0.081
0.096
0.091
0.061
0.039
0.032
0.002
-0.019
-0.019
-0.029
-0.056
-0.067
-0.058
-0.072
-0.086
-0.074
-0.068
-0.088
-0.082
-0.066
-0.083
-0.073
-0.06
-0.071
-0.074
-0.05
-0.053
-0.063
-0.047
0.002
0.077
0.228
0.426
0.357
0.17
0.068
-0.08
-0.157
-0.15
-0.21
-0.277
-0.242
-0.134
-0.072
-0.057
-0.041
-0.026
-0.024
-0.047
-0.018
-0.038
-0.03
-0.013
-0.013
-0.026
-0.007
0.024
0.02
0.013
0.034
0.045
0.034
0.049
0.052
0.051
0.052
0.067
0.046
0.056
0.077
0.078
0.052
0.078
0.099
0.091
0.089
0.118
0.109
0.11
0.134
0.139
0.134
0.155
0.164
0.155
0.161
0.181
0.179
0.151
0.173
0.172
0.144
0.135
0.127
0.098
0.078
0.068
0.033
0.006
0.007
-0.005
-0.042
-0.04
-0.033
-0.05
-0.068
-0.044
-0.041
-0.057
-0.042
-0.039
-0.061
-0.064
-0.051
-0.057
-0.057
-0.042
-0.039
-0.063
-0.053
-0.049
-0.063
-0.067
-0.044
-0.044
-0.067
-0.049
-0.042
-0.061
-0.048
-0.037
-0.049
-0.048
-0.03
-0.032
-0.042
-0.022
-0.015
-0.033
-0.041
-0.024
-0.039
-0.037
-0.021
-0.028
-0.044
-0.031
-0.017
-0.039
-0.035
-0.017
-0.011
-0.038
-0.011
-0.003
0.004
0.03
0.066
0.048
0.044
0.091
0.11
0.083
0.1
0.099
0.068
0.069
0.063
0.029
-0.004
0.008
-0.004
-0.035
-0.039
-0.044
-0.068
-0.074
-0.058
-0.073
-0.087
-0.072
-0.065
-0.082
-0.062
-0.049
-0.069
-0.081
-0.048
-0.044
-0.056
-0.039
-0.033
-0.005
0.091
0.278
0.414
0.299
0.171
0.062
-0.099
-0.111
-0.138
-0.23
-0.264
-0.186
-0.1
-0.051
-0.028
-0.023
-0.04
-0.024
0.001
-0.019
-0.017
0.005
0.012
-0.006
0.014
0.026
0.011
0.02
0.041
0.039
0.04
0.05
0.042
0.036
0.062
0.071
0.053
0.056
0.074
0.071
0.066
0.09
0.097
0.088
0.101
0.114
0.108
0.105
0.124
0.12
0.121
0.142
0.151
0.141
0.16
0.175
0.161
0.157
0.171
0.154
0.134
0.14
0.136
0.104
0.095
0.089
0.051
0.028
0.023
-0.005
-0.037
-0.028
-0.029
-0.046
-0.053
-0.038
-0.051
-0.052
-0.029
-0.029
-0.054
-0.047
-0.032
-0.048
-0.046
-0.03
-0.032
-0.042
-0.027
-0.026
-0.035
-0.023
-0.002
-0.019
-0.028
-0.006
-0.002
-0.013
-0.005
-0.002
-0.027
-0.028
-0.006
-0.014
-0.02
-0.006
-0.014
-0.028
-0.013
-0.006
-0.03
-0.029
-0.01
-0.012
-0.02
-0.005
0
-0.021
-0.018
-0.012
-0.023
-0.026
-0.005
-0.014
-0.019
0.013
0.038
0.039
0.045
0.06
0.065
0.066
0.074
0.079
0.062
0.055
0.046
0.012
-0.01
-0.009
-0.026
-0.041
-0.037
-0.065
-0.097
-0.094
-0.084
-0.105
-0.112
-0.102
-0.098
-0.105
-0.086
-0.089
-0.101
-0.1
-0.085
-0.091
-0.088
-0.072
-0.08
-0.096
-0.048
0.047
0.189
0.376
0.344
0.178
0.058
-0.061
-0.105
-0.131
-0.211
-0.282
-0.29
-0.2
-0.107
-0.082
-0.092
-0.07
-0.055
-0.072
-0.062
-0.043
-0.054
-0.057
-0.034
-0.039
-0.044
-0.015
-0.011
-0.027
-0.014
0.016
0.013
0.003
0.024
0.027
0.006
0.023
0.031
0.023
0.034
0.051
0.046
0.043
0.067
0.067
0.057
0.076
0.102
0.088
0.085
0.109
0.122
0.118
0.137
0.142
0.131
0.141
0.159
0.14
0.135
0.151
0.138
0.105
0.111
0.101
0.064
0.044
0.035
0.007
-0.026
-0.026
-0.04
-0.059
-0.053
-0.05
-0.078
-0.079
-0.058
-0.061
-0.074
-0.059
-0.056
-0.077
-0.066
-0.061
-0.077
-0.081
-0.052
-0.055
-0.065
-0.052
-0.042
-0.065
-0.057
-0.042
-0.05
-0.062
-0.051
-0.053
-0.063
-0.05
-0.04
-0.053
-0.05
-0.029
-0.049
-0.059
-0.042
-0.04
-0.065
-0.055
-0.045
-0.056
-0.052
-0.027
-0.036
-0.061
-0.045
-0.042
-0.052
-0.042
-0.014
-0.021
-0.012
0.021
0.028
0.02
0.056
0.058
0.058
0.074
0.076
0.063
0.071
0.085
0.064
0.021
-0.004
-0.012
-0.036
-0.037
-0.031
-0.06
-0.091
-0.078
-0.086
-0.121
-0.115
-0.108
-0.119
-0.117
-0.097
-0.104
-0.119
-0.101
-0.092
-0.095
-0.083
-0.067
-0.089
-0.102
-0.064
0.007
0.145
0.382
0.413
0.281
0.188
0.093
0
-0.022
-0.108
-0.23
-0.307
-0.245
-0.147
-0.103
-0.093
-0.066
-0.069
-0.08
-0.063
-0.056
-0.061
-0.051
-0.037
-0.049
-0.042
-0.014
-0.004
-0.015
-0.002
0.015
0.001
0.004
0.028
0.019
0.013
0.04
0.04
0.031
0.044
0.061
0.055
0.056
0.082
0.072
0.066
0.08
0.095
0.085
0.1
0.117
0.113
0.114
0.14
0.142
0.132
0.152
0.154
0.135
0.132
0.147
0.135
0.119
0.121
0.099
0.062
0.058
0.051
0.021
0.004
0
-0.029
-0.045
-0.036
-0.036
-0.053
-0.043
-0.03
-0.05
-0.057
-0.036
-0.033
-0.052
-0.04
-0.032
-0.048
-0.039
-0.024
-0.03
-0.031
-0.015
-0.022
-0.044
-0.029
-0.023
-0.039
-0.03
-0.014
-0.028
-0.036
-0.01
-0.013
-0.024
-0.02
-0.005
-0.029
-0.027
-0.018
-0.033
-0.045
-0.02
-0.011
-0.033
-0.024
-0.005
-0.014
-0.012
0.014
0.015
0.013
0.048
0.077
0.07
0.068
0.114
0.122
0.107
0.129
0.137
0.107
0.105
0.079
0.032
0.016
0.025
0.001
-0.03
-0.028
-0.035
-0.055
-0.056
-0.054
-0.081
-0.08
-0.06
-0.066
-0.082
-0.058
-0.053
-0.068
-0.069
-0.044
-0.045
-0.054
-0.033
-0.029
-0.006
0.098
0.268
0.444
0.434
0.311
0.198
0.055
0.013
-0.011
-0.128
-0.236
-0.258
-0.213
-0.127
-0.059
-0.057
-0.062
-0.038
-0.031
-0.058
-0.049
-0.031
-0.038
-0.046
-0.028
-0.023
-0.024
-0.008
0.001
-0.005
0.008
0.024
0.01
0.014
0.036
0.035
0.016
0.035
0.048
0.041
0.043
0.073
0.07
0.069
0.078
0.086
0.074
0.093
0.118
0.11
0.118
0.141
0.138
0.13
0.147
0.159
0.14
0.148
0.164
0.149
0.142
0.139
0.119
0.084
0.091
0.076
0.03
0.009
0.01
-0.016
-0.037
-0.027
-0.036
-0.064
-0.06
-0.053
-0.064
-0.065
-0.049
-0.059
-0.07
-0.056
-0.06
-0.078
-0.062
-0.05
-0.06
-0.057
-0.033
-0.043
-0.06
-0.04
-0.04
-0.058
-0.053
-0.035
-0.052
-0.055
-0.035
-0.041
-0.057
-0.042
-0.039
-0.058
-0.054
-0.038
-0.051
-0.059
-0.04
-0.038
-0.058
-0.047
-0.037
-0.055
-0.053
-0.034
-0.042
-0.062
-0.04
-0.028
-0.024
0.014
0.062
0.056
0.034
0.052
0.076
0.069
0.077
0.097
0.067
0.054
0.052
0.009
-0.022
-0.016
-0.028
-0.052
-0.061
-0.067
-0.088
-0.1
-0.083
-0.099
-0.11
-0.1
-0.102
-0.118
-0.105
-0.086
-0.105
-0.111
-0.094
-0.095
-0.11
-0.089
-0.054
-0.058
0.007
0.124
0.294
0.407
0.291
0.121
-0.036
-0.155
-0.176
-0.212
-0.268
-0.283
-0.237
-0.147
-0.07
-0.054
-0.058
-0.04
-0.024
-0.055
-0.056
-0.031
-0.026
-0.026
-0.011
-0.01
-0.008
0.013
0.038
0.025
0.026
0.038
0.044
0.022
0.04
0.054
0.035
0.033
0.046
0.051
0.045
0.062
0.071
0.055
0.074
0.089
0.079
0.089
0.119
0.115
0.106
0.141
0.158
0.144
0.156
0.166
0.151
0.153
0.173
0.157
0.144
0.161
0.15
0.104
0.098
0.102
0.06
0.029
0.028
0.004
-0.029
-0.034
-0.032
-0.061
-0.063
-0.058
-0.078
-0.083
-0.059
-0.067
-0.083
-0.074
-0.058
-0.076
-0.079
-0.065
-0.069
-0.077
-0.05
-0.062
-0.072
-0.053
-0.046
-0.068
-0.066
-0.036
-0.047
-0.058
-0.045
-0.038
-0.056
-0.045
-0.032
-0.045
-0.058
-0.034
-0.035
-0.046
-0.041
-0.037
-0.058
-0.054
-0.039
-0.047
-0.067
-0.042
-0.036
-0.058
-0.048
-0.045
-0.046
-0.026
0.015
0.016
0.027
0.04
0.044
0.036
0.047
0.067
0.062
0.056
0.063
0.041
-0.007
-0.02
-0.016
-0.042
-0.04
-0.041
-0.061
-0.081
-0.065
-0.068
-0.101
-0.094
-0.082
-0.104
-0.1
-0.071
-0.08
-0.092
-0.065
-0.069
-0.077
-0.058
-0.04
-0.055
-0.035
0.022
0.106
0.262
0.429
0.306
0.119
-0.004
-0.154
-0.2
-0.212
-0.248
-0.283
-0.236
-0.129
-0.054
-0.058
-0.063
-0.043
-0.05
-0.039
-0.024
-0.023
-0.025
-0.011
-0.011
-0.027
-0.002
0.018
-0.001
-0.004
0.031
0.045
0.038
0.039
0.049
0.034
0.039
0.06
0.064
0.056
0.088
0.09
0.065
0.076
0.104
0.099
0.084
0.117
0.127
0.122
0.14
0.156
0.142
0.15
0.168
0.162
0.153
0.176
0.17
0.162
0.155
0.171
0.139
0.118
0.113
0.074
0.046
0.041
0.014
-0.019
-0.027
-0.033
-0.063
-0.086
-0.068
-0.069
-0.1
-0.083
-0.07
-0.099
-0.101
-0.079
-0.097
-0.109
-0.099
-0.096
-0.101
-0.08
-0.078
-0.083
-0.088
-0.054
-0.075
-0.088
-0.058
-0.054
-0.065
-0.052
-0.032
-0.052
-0.041
-0.031
-0.044
-0.059
-0.038
-0.04
-0.055
-0.037
-0.013
-0.033
-0.046
-0.037
-0.033
-0.048
-0.033
-0.025
-0.044
-0.034
-0.008
0
0.025
0.074
0.078
0.047
0.062
0.1
0.067
0.077
0.097
0.095
0.054
0.047
0.019
-0.026
-0.033
-0.025
-0.047
-0.045
-0.058
-0.081
-0.095
-0.088
-0.082
-0.116
-0.1
-0.087
-0.096
-0.089
-0.097
-0.068
-0.096
-0.086
-0.074
-0.081
-0.089
-0.052
-0.046
-0.024
0.082
0.238
0.38
0.319
0.155
0.021
-0.107
-0.117
-0.14
-0.234
-0.265
-0.206
-0.12
-0.053
-0.03
-0.05
-0.037
-0.016
-0.011
-0.032
-0.004
0.03
0.013
0.019
0.031
0.021
0.026
0.046
0.06
0.034
0.044
0.058
0.041
0.043
0.055
0.064
0.055
0.079
0.093
0.057
0.067
0.078
0.066
0.068
0.089
0.1
0.089
0.114
0.131
0.127
0.133
0.152
0.157
0.146
0.165
0.168
0.156
0.18
0.174
0.154
0.161
0.162
0.134
0.104
0.11
0.073
0.035
0.016
0.014
-0.015
-0.013
-0.022
-0.035
-0.062
-0.041
-0.048
-0.069
-0.077
-0.069
-0.073
-0.069
-0.036
-0.037
-0.047
-0.048
-0.013
-0.051
-0.064
-0.043
-0.075
-0.09
-0.067
-0.06
-0.07
-0.043
-0.029
-0.064
-0.031
0.01
-0.019
-0.032
-0.03
-0.018
-0.03
-0.005
0.009
-0.006
-0.014
-0.015
-0.032
-0.039
-0.017
-0.025
-0.029
-0.022
-0.006
-0.004
0.023
0.07
0.09
0.083
0.082
0.084
0.093
0.089
0.105
0.1
0.094
0.093
0.066
0.016
0.004
-0.011
-0.028
-0.024
-0.029
-0.062
-0.094
-0.093
-0.08
-0.089
-0.101
-0.092
-0.1
-0.088
-0.069
-0.089
-0.083
-0.055
-0.062
-0.074
-0.058
-0.059
-0.066
-0.073
0.001
0.082
0.237
0.397
0.321
0.139
0.027
-0.097
-0.115
-0.136
-0.209
-0.275
-0.267
-0.153
-0.07
-0.05
-0.028
-0.008
-0.019
-0.047
-0.033
-0.032
-0.051
-0.042
-0.023
-0.027
-0.032
-0.002
0.001
-0.002
0.019
0.025
0.01
0.007
0.032
0.034
0.031
0.052
0.059
0.063
0.055
0.053
0.025
0.053
0.072
0.064
0.065
0.093
0.089
0.048
0.099
0.14
0.103
0.12
0.144
0.142
0.119
0.125
0.152
0.141
0.128
0.129
0.119
0.086
0.1
0.08
0.06
0.041
0.018
-0.025
-0.026
-0.032
-0.061
-0.058
-0.027
-0.041
-0.075
-0.045
-0.045
-0.068
-0.106
-0.073
-0.078
-0.076
-0.055
-0.06
-0.083
-0.061
-0.031
-0.046
-0.017
0.003
-0.023
-0.064
-0.037
0.003
-0.013
-0.032
-0.057
-0.034
0.079
0.032
-0.069
-0.083
-0.073
-0.053
-0.045
-0.023
-0.003
-0.003
-0.005
-0.01
-0.036
-0.038
0.015
0.069
0.069
0.074
0.076
0.093
0.095
0.099
0.1
0.115
0.122
0.111
0.068
0.049
0.05
0.012
-0.024
0.004
-0.008
-0.063
-0.088
-0.051
-0.055
-0.083
-0.071
-0.086
-0.079
-0.049
-0.069
-0.059
-0.043
-0.015
-0.054
-0.074
-0.033
-0.021
-0.036
-0.023
0.018
0.092
0.292
0.476
0.397
0.228
0.137
0.015
-0.012
0
-0.133
-0.275
-0.308
-0.213
-0.13
-0.104
-0.09
-0.081
-0.09
-0.077
-0.066
-0.07
-0.07
-0.037
-0.048
-0.061
-0.032
-0.018
-0.039
-0.043
-0.005
-0.01
-0.019
-0.013
-0.009
-0.013
0.006
0.017
0.001
0.002
0.026
0.017
0.001
0.026
0.052
0.043
0.05
0.072
0.071
0.074
0.087
0.094
0.085
0.092
0.104
0.118
0.122
0.119
0.099
0.088
0.105
0.099
0.066
0.069
0.064
0.038
0.026
0.027
-0.005
-0.032
-0.03
-0.048
-0.079
-0.076
-0.07
-0.094
-0.111
-0.093
-0.101
-0.11
-0.104
-0.106
-0.12
-0.114
-0.099
-0.106
-0.099
-0.085
-0.103
-0.113
-0.084
-0.075
-0.099
-0.081
-0.072
-0.086
-0.076
-0.054
-0.079
-0.103
-0.073
-0.06
-0.085
-0.08
-0.061
-0.049
-0.06
-0.05
-0.037
-0.04
-0.025
0.007
0.018
0.033
0.047
0.033
0.056
0.084
0.08
0.063
0.07
0.061
0.037
0.008
-0.009
-0.038
-0.072
-0.067
-0.062
-0.095
-0.091
-0.094
-0.117
-0.139
-0.126
-0.119
-0.127
-0.11
-0.095
-0.095
-0.102
-0.093
-0.099
-0.108
-0.093
-0.091
-0.097
-0.063
-0.013
0.062
0.218
0.469
0.471
0.333
0.218
0.08
-0.03
-0.021
-0.068
-0.25
-0.325
-0.282
-0.204
-0.145
-0.1
-0.072
-0.064
-0.07
-0.077
-0.067
-0.076
-0.063
-0.048
-0.066
-0.042
-0.021
-0.042
-0.02
0.009
0.001
-0.019
-0.005
0.005
-0.005
-0.003
0.023
0.026
0.021
0.041
0.031
0.015
0.047
0.067
0.044
0.054
0.081
0.087
0.095
0.125
0.124
0.116
0.132
0.149
0.139
0.144
0.152
0.139
0.137
0.138
0.132
0.102
0.107
0.11
0.078
0.061
0.059
0.01
-0.014
-0.014
-0.02
-0.051
-0.049
-0.043
-0.065
-0.058
-0.047
-0.05
-0.053
-0.051
-0.046
-0.046
-0.04
-0.016
-0.033
-0.041
-0.026
-0.027
-0.041
-0.036
-0.022
-0.039
-0.034
-0.019
-0.023
-0.031
-0.009
-0.015
-0.023
-0.012
0
-0.008
-0.008
0.004
0.003
0.001
0.026
0.041
0.039
0.05
0.062
0.053
0.066
0.112
0.128
0.116
0.124
0.123
0.083
0.082
0.08
0.025
0.003
0.016
-0.006
-0.04
-0.044
-0.054
-0.074
-0.073
-0.066
-0.088
-0.096
-0.082
-0.085
-0.101
-0.081
-0.07
-0.084
-0.073
-0.048
-0.043
-0.07
-0.026
-0.007
0.049
0.15
0.319
0.499
0.487
0.344
0.193
-0.012
-0.095
-0.105
-0.192
-0.276
-0.289
-0.234
-0.15
-0.07
-0.054
-0.058
-0.045
-0.027
-0.033
-0.022
0.002
-0.02
-0.021
0.011
0.018
0
0.014
0.029
0.019
0.023
0.044
0.041
0.035
0.056
0.065
0.047
0.059
0.082
0.069
0.074
0.101
0.101
0.087
0.097
0.11
0.112
0.111
0.144
0.142
0.135
0.158
0.163
0.147
0.164
0.174
0.163
0.167
0.18
0.154
0.139
0.153
0.138
0.093
0.084
0.075
0.047
0.032
0.03
-0.005
-0.022
-0.02
-0.032
-0.058
-0.046
-0.03
-0.047
-0.056
-0.045
-0.054
-0.062
-0.041
-0.026
-0.041
-0.039
-0.018
-0.023
-0.025
-0.009
-0.018
-0.037
-0.013
-0.007
-0.028
-0.026
-0.007
-0.031
-0.038
-0.016
-0.011
-0.028
-0.016
-0.001
-0.015
-0.017
-0.002
-0.002
0.004
0.035
0.054
0.046
0.051
0.083
0.078
0.098
0.128
0.123
0.096
0.098
0.102
0.08
0.071
0.05
0.024
-0.002
-0.004
-0.028
-0.044
-0.04
-0.052
-0.091
-0.094
-0.079
-0.081
-0.088
-0.077
-0.079
-0.091
-0.068
-0.053
-0.07
-0.08
-0.049
-0.055
-0.056
-0.015
0.021
0.067
0.174
0.363
0.487
0.362
0.177
0.015
-0.173
-0.211
-0.218
-0.282
-0.288
-0.21
-0.132
-0.081
-0.042
-0.032
-0.055
-0.044
-0.038
-0.046
-0.031
-0.007
-0.016
-0.022
0.004
0.013
0.005
0.017
0.037
0.022
0.025
0.043
0.041
0.029
0.042
0.042
0.021
0.037
0.066
0.062
0.057
0.079
0.075
0.066
0.077
0.089
0.084
0.102
0.127
0.117
0.117
0.151
0.16
0.142
0.152
0.164
0.152
0.154
0.161
0.15
0.126
0.135
0.111
0.07
0.051
0.035
-0.012
-0.032
-0.03
-0.052
-0.08
-0.072
-0.065
-0.096
-0.094
-0.084
-0.097
-0.098
-0.084
-0.091
-0.108
-0.088
-0.08
-0.099
-0.092
-0.071
-0.086
-0.092
-0.08
-0.074
-0.096
-0.081
-0.07
-0.087
-0.089
-0.07
-0.083
-0.088
-0.061
-0.063
-0.079
-0.059
-0.048
-0.068
-0.074
-0.052
-0.056
-0.059
-0.048
-0.055
-0.076
-0.064
-0.049
-0.057
-0.064
-0.059
-0.053
-0.055
-0.027
-0.012
-0.013
0.016
0.042
0.025
0.034
0.072
0.069
0.056
0.076
0.072
0.035
0.031
0.03
-0.006
-0.038
-0.027
-0.04
-0.068
-0.079
-0.08
-0.107
-0.111
-0.097
-0.1
-0.11
-0.097
-0.1
-0.122
-0.108
-0.091
-0.104
-0.111
-0.077
-0.062
-0.065
-0.028
0.001
0.031
0.126
0.306
0.439
0.311
0.117
-0.039
-0.208
-0.251
-0.249
-0.305
-0.314
-0.234
-0.147
-0.089
-0.053
-0.059
-0.069
-0.054
-0.041
-0.057
-0.051
-0.033
-0.033
-0.036
-0.015
-0.011
-0.019
-0.015
-0.008
-0.016
-0.011
0.011
0.006
0.002
0.024
0.032
0
0.01
0.036
0.029
0.019
0.048
0.059
0.047
0.056
0.071
0.059
0.067
0.088
0.084
0.092
0.119
0.127
0.111
0.13
0.148
0.135
0.119
0.129
0.126
0.105
0.104
0.088
0.049
0.035
0.034
-0.007
-0.031
-0.033
-0.062
-0.099
-0.097
-0.096
-0.108
-0.11
-0.1
-0.118
-0.124
-0.108
-0.113
-0.133
-0.115
-0.102
-0.118
-0.117
-0.098
-0.109
-0.117
-0.091
-0.087
-0.097
-0.09
-0.076
-0.086
-0.085
-0.072
-0.089
-0.103
-0.082
-0.076
-0.095
-0.086
-0.066
-0.069
-0.076
-0.06
-0.066
-0.079
-0.068
-0.053
-0.059
-0.06
-0.051
-0.069
-0.074
-0.055
-0.053
-0.069
-0.058
-0.051
-0.065
-0.06
-0.043
-0.05
-0.048
-0.019
0
-0.005
0.029
0.058
0.055
0.056
0.076
0.096
0.085
0.097
0.107
0.094
0.089
0.088
0.044
0.019
0.015
0.003
-0.031
-0.037
-0.045
-0.067
-0.065
-0.065
-0.086
-0.093
-0.07
-0.074
-0.093
-0.085
-0.072
-0.085
-0.084
-0.071
-0.058
-0.057
-0.036
-0.022
-0.01
0.04
0.118
0.224
0.394
0.355
0.16
0.023
-0.106
-0.169
-0.183
-0.228
-0.255
-0.235
-0.134
-0.049
-0.029
-0.036
-0.018
0
-0.007
0
0.014
0.013
0.021
0.042
0.038
0.029
0.053
0.06
0.043
0.046
0.065
0.061
0.053
0.079
0.084
0.072
0.078
0.09
0.078
0.09
0.111
0.105
0.1
0.117
0.122
0.1
0.11
0.139
0.137
0.133
0.156
0.162
0.161
0.181
0.184
0.175
0.183
0.192
0.178
0.174
0.189
0.185
0.157
0.157
0.144
0.1
0.075
0.067
0.036
0.011
0.009
-0.015
-0.041
-0.031
-0.02
-0.044
-0.038
-0.025
-0.04
-0.054
-0.033
-0.034
-0.05
-0.05
-0.039
-0.055
-0.045
-0.025
-0.034
-0.042
-0.028
-0.021
-0.036
-0.025
-0.017
-0.029
-0.031
-0.016
-0.022
-0.034
-0.021
-0.017
-0.032
-0.031
-0.006
-0.021
-0.032
-0.016
-0.012
-0.034
-0.027
-0.014
-0.027
-0.018
-0.003
-0.022
-0.032
-0.019
-0.017
-0.032
-0.027
-0.016
-0.028
-0.031
-0.019
-0.024
-0.036
-0.024
-0.02
-0.033
-0.018
0.006
0
0.017
0.057
0.073
0.074
0.107
0.106
0.085
0.112
0.131
0.109
0.114
0.131
0.115
0.086
0.066
0.05
0.017
0.012
0.017
-0.009
-0.041
-0.043
-0.041
-0.069
-0.067
-0.069
-0.079
-0.077
-0.058
-0.068
-0.07
-0.059
-0.055
-0.079
-0.067
-0.041
-0.052
-0.065
-0.046
-0.019
0.052
0.207
0.405
0.362
0.207
0.126
-0.015
-0.086
-0.086
-0.174
-0.269
-0.268
-0.174
-0.111
-0.073
-0.064
-0.069
-0.067
-0.049
-0.049
-0.062
-0.039
-0.025
-0.036
-0.034
-0.005
-0.007
-0.015
-0.004
0.007
0.003
0.005
0.022
0.017
0.025
0.042
0.034
0.023
0.037
0.048
0.029
0.039
0.066
0.061
0.059
0.086
0.099
0.093
0.118
0.132
0.118
0.131
0.158
0.144
0.135
0.154
0.158
0.143
0.148
0.164
0.142
0.134
0.141
0.122
0.087
0.085
0.057
0.023
0.014
0.014
-0.023
-0.048
-0.041
-0.048
-0.067
-0.065
-0.066
-0.067
-0.063
-0.057
-0.079
-0.076
-0.059
-0.056
-0.072
-0.062
-0.052
-0.064
-0.06
-0.049
-0.05
-0.061
-0.041
-0.029
-0.048
-0.043
-0.044
-0.056
-0.048
-0.029
-0.04
-0.048
-0.034
-0.04
-0.057
-0.055
-0.044
-0.058
-0.064
-0.054
-0.057
-0.075
-0.051
-0.049
-0.064
-0.05
-0.035
-0.053
-0.058
-0.043
-0.046
-0.047
-0.018
0.002
-0.012
0.01
0.055
0.053
0.031
0.057
0.078
0.064
0.076
0.103
0.075
0.055
0.058
0.022
-0.009
-0.014
-0.025
-0.053
-0.066
-0.067
-0.094
-0.109
-0.097
-0.107
-0.118
-0.105
-0.102
-0.116
-0.112
-0.1
-0.107
-0.101
-0.078
-0.086
-0.089
-0.074
-0.055
-0.056
-0.003
0.109
0.287
0.444
0.383
0.253
0.125
-0.006
-0.03
-0.082
-0.194
-0.269
-0.291
-0.217
-0.113
-0.078
-0.09
-0.075
-0.058
-0.074
-0.067
-0.044
-0.037
-0.045
-0.035
-0.029
-0.039
-0.019
-0.005
-0.008
-0.004
0.014
0.004
-0.001
0.018
0.027
0.014
0.023
0.045
0.044
0.041
0.056
0.054
0.053
0.069
0.078
0.07
0.081
0.11
0.108
0.112
0.134
0.145
0.133
0.14
0.153
0.14
0.139
0.161
0.154
0.14
0.147
0.142
0.115
0.099
0.09
0.059
0.029
0.028
0.011
-0.018
-0.025
-0.035
-0.061
-0.062
-0.047
-0.053
-0.059
-0.043
-0.051
-0.064
-0.056
-0.042
-0.061
-0.053
-0.038
-0.049
-0.055
-0.039
-0.036
-0.052
-0.035
-0.025
-0.039
-0.042
-0.023
-0.027
-0.033
-0.024
-0.022
-0.026
-0.02
-0.004
-0.019
-0.021
-0.008
-0.014
-0.032
-0.016
-0.012
-0.026
-0.024
-0.02
-0.035
-0.036
-0.017
-0.015
-0.026
-0.023
-0.017
-0.032
-0.015
0
-0.004
-0.004
0.018
0.037
0.044
0.07
0.091
0.067
0.087
0.12
0.106
0.095
0.118
0.112
0.082
0.067
0.046
0.018
0.001
0.006
-0.013
-0.04
-0.048
-0.053
-0.077
-0.075
-0.073
-0.089
-0.087
-0.068
-0.077
-0.092
-0.07
-0.065
-0.077
-0.086
-0.063
-0.067
-0.063
-0.04
-0.012
0.052
0.168
0.376
0.456
0.291
0.143
-0.01
-0.158
-0.154
-0.189
-0.267
-0.291
-0.207
-0.121
-0.056
-0.034
-0.039
-0.038
-0.022
-0.019
-0.039
-0.025
-0.004
-0.014
-0.015
0.01
0.012
0.003
0.019
0.036
0.026
0.031
0.037
0.026
0.032
0.051
0.049
0.031
0.049
0.069
0.067
0.07
0.088
0.088
0.082
0.1
0.107
0.094
0.105
0.121
0.113
0.131
0.154
0.152
0.129
0.15
0.152
0.14
0.146
0.153
0.142
0.138
0.139
0.122
0.081
0.069
0.053
0.004
-0.007
-0.013
-0.041
-0.074
-0.06
-0.071
-0.089
-0.083
-0.082
-0.098
-0.09
-0.074
-0.088
-0.093
-0.08
-0.076
-0.096
-0.078
-0.066
-0.08
-0.083
-0.062
-0.065
-0.065
-0.059
-0.062
-0.076
-0.065
-0.05
-0.061
-0.068
-0.046
-0.05
-0.06
-0.041
-0.035
-0.05
-0.052
-0.032
-0.043
-0.046
-0.027
-0.036
-0.055
-0.047
-0.04
-0.06
-0.055
-0.036
-0.039
-0.044
-0.032
-0.039
-0.053
-0.043
-0.03
-0.032
-0.031
-0.008
-0.012
-0.002
0.038
0.069
0.064
0.065
0.081
0.089
0.09
0.106
0.1
0.081
0.079
0.064
0.017
0.007
0.007
-0.012
-0.032
-0.039
-0.053
-0.079
-0.069
-0.072
-0.094
-0.094
-0.076
-0.086
-0.091
-0.079
-0.079
-0.099
-0.083
-0.076
-0.079
-0.068
-0.045
-0.043
-0.032
0.052
0.144
0.318
0.433
0.275
0.086
-0.043
-0.157
-0.178
-0.209
-0.251
-0.277
-0.221
-0.117
-0.054
-0.056
-0.059
-0.026
-0.028
-0.036
-0.031
-0.022
-0.029
-0.022
-0.004
-0.004
0.006
0.028
0.026
0.018
0.047
0.057
0.039
0.039
0.056
0.062
0.057
0.076
0.083
0.077
0.084
0.093
0.075
0.086
0.108
0.106
0.101
0.125
0.135
0.135
0.148
0.166
0.159
0.169
0.188
0.184
0.179
0.19
0.189
0.164
0.166
0.167
0.143
0.123
0.114
0.084
0.049
0.031
0.015
-0.013
-0.028
-0.023
-0.048
-0.072
-0.068
-0.076
-0.09
-0.073
-0.065
-0.083
-0.081
-0.064
-0.07
-0.085
-0.073
-0.069
-0.085
-0.077
-0.064
-0.072
-0.063
-0.045
-0.056
-0.062
-0.043
-0.051
-0.071
-0.066
-0.046
-0.056
-0.059
-0.04
-0.045
-0.058
-0.041
-0.032
-0.049
-0.042
-0.031
-0.05
-0.066
-0.044
-0.049
-0.058
-0.043
-0.026
-0.045
-0.045
-0.033
-0.047
-0.058
-0.043
-0.042
-0.054
-0.038
-0.018
-0.029
-0.015
0.018
0.024
0.039
0.072
0.057
0.041
0.071
0.087
0.08
0.096
0.11
0.086
0.043
0.027
0.007
-0.014
-0.012
-0.018
-0.061
-0.082
-0.066
-0.075
-0.103
-0.093
-0.091
-0.114
-0.106
-0.095
-0.1
-0.106
-0.082
-0.085
-0.098
-0.081
-0.067
-0.088
-0.076
-0.038
0.024
0.111
0.328
0.414
0.215
0.066
-0.053
-0.191
-0.187
-0.195
-0.27
-0.304
-0.224
-0.124
-0.085
-0.068
-0.054
-0.058
-0.058
-0.046
-0.054
-0.049
-0.022
-0.015
-0.028
-0.022
0.01
0.006
-0.004
0.011
0.022
0.011
0.023
0.042
0.03
0.037
0.047
0.044
0.037
0.054
0.048
0.037
0.058
0.08
0.065
0.061
0.084
0.088
0.091
0.114
0.124
0.119
0.141
0.155
0.145
0.139
0.164
0.156
0.149
0.164
0.164
0.138
0.128
0.13
0.094
0.068
0.051
0.021
-0.013
-0.012
-0.026
-0.056
-0.061
-0.051
-0.069
-0.077
-0.072
-0.076
-0.085
-0.079
-0.071
-0.089
-0.075
-0.063
-0.079
-0.087
-0.068
-0.066
-0.083
-0.083
-0.059
-0.076
-0.079
-0.059
-0.065
-0.078
-0.059
-0.052
-0.071
-0.062
-0.059
-0.076
-0.075
-0.046
-0.052
-0.063
-0.048
-0.037
-0.054
-0.048
-0.034
-0.05
-0.049
-0.032
-0.032
-0.051
-0.029
-0.031
-0.038
-0.039
-0.015
-0.024
-0.023
-0.008
-0.002
-0.014
0.026
0.059
0.067
0.07
0.076
0.099
0.094
0.104
0.11
0.122
0.106
0.102
0.058
0.035
0.03
0.012
-0.024
-0.03
-0.039
-0.073
-0.065
-0.058
-0.069
-0.076
-0.071
-0.07
-0.088
-0.081
-0.079
-0.087
-0.082
-0.06
-0.07
-0.066
-0.05
-0.046
-0.058
0
0.088
0.239
0.424
0.397
0.254
0.158
0.049
-0.009
-0.049
-0.156
-0.244
-0.282
-0.214
-0.117
-0.077
-0.087
-0.06
-0.06
-0.068
-0.063
-0.046
-0.055
-0.043
-0.025
-0.031
-0.033
-0.015
-0.015
-0.03
-0.006
0.016
0.011
0.006
0.024
0.02
0.01
0.027
0.039
0.033
0.036
0.061
0.053
0.059
0.083
0.09
0.073
0.088
0.111
0.107
0.101
0.131
0.134
0.133
0.142
0.146
0.135
0.148
0.168
0.154
0.146
0.151
0.136
0.105
0.105
0.097
0.059
0.048
0.045
0.02
-0.005
-0.025
-0.026
-0.055
-0.046
-0.042
-0.056
-0.054
-0.041
-0.045
-0.057
-0.042
-0.035
-0.04
-0.024
-0.028
-0.037
-0.025
-0.015
-0.029
-0.03
-0.015
-0.007
-0.024
-0.011
0.002
-0.017
-0.028
-0.01
-0.015
-0.02
-0.013
-0.008
-0.02
-0.002
0.009
-0.012
-0.021
-0.011
-0.015
-0.029
-0.011
-0.007
-0.02
-0.02
-0.003
-0.013
-0.013
0.005
0.015
0.007
0.031
0.059
0.065
0.09
0.09
0.074
0.096
0.12
0.102
0.1
0.106
0.098
0.071
0.047
0.037
0.007
-0.012
-0.019
-0.028
-0.062
-0.059
-0.049
-0.069
-0.08
-0.065
-0.073
-0.078
-0.068
-0.06
-0.074
-0.071
-0.055
-0.066
-0.061
-0.046
-0.044
-0.041
-0.01
0.056
0.147
0.339
0.497
0.364
0.219
0.106
-0.048
-0.081
-0.106
-0.197
-0.291
-0.279
-0.175
-0.099
-0.079
-0.056
-0.052
-0.06
-0.049
-0.038
-0.047
-0.036
-0.011
-0.007
-0.016
-0.005
0.002
-0.01
-0.006
0.009
0.001
0
0.026
0.022
0.021
0.036
0.045
0.034
0.043
0.067
0.058
0.056
0.079
0.073
0.067
0.084
0.099
0.097
0.108
0.128
0.12
0.125
0.142
0.144
0.131
0.144
0.16
0.142
0.141
0.149
0.139
0.117
0.124
0.105
0.064
0.039
0.026
-0.012
-0.023
-0.02
-0.046
-0.064
-0.054
-0.057
-0.08
-0.074
-0.059
-0.075
-0.083
-0.064
-0.066
-0.083
-0.073
-0.059
-0.08
-0.073
-0.055
-0.064
-0.069
-0.061
-0.065
-0.078
-0.062
-0.052
-0.062
-0.061
-0.046
-0.054
-0.062
-0.047
-0.053
-0.065
-0.049
-0.042
-0.063
-0.063
-0.039
-0.043
-0.061
-0.048
-0.045
-0.058
-0.054
-0.043
-0.059
-0.058
-0.041
-0.041
-0.051
-0.027
-0.005
-0.014
0.009
0.047
0.056
0.042
0.063
0.075
0.067
0.079
0.101
0.071
0.056
0.056
0.018
-0.01
-0.01
-0.021
-0.045
-0.044
-0.06
-0.077
-0.082
-0.072
-0.092
-0.1
-0.089
-0.086
-0.1
-0.09
-0.077
-0.089
-0.086
-0.079
-0.076
-0.087
-0.057
-0.037
-0.022
0.059
0.174
0.344
0.444
0.286
0.101
-0.056
-0.19
-0.199
-0.228
-0.264
-0.27
-0.201
-0.108
-0.033
-0.033
-0.045
-0.032
-0.015
-0.025
-0.026
-0.002
-0.007
-0.01
0.005
0.019
0.016
0.028
0.024
0.008
0.022
0.051
0.038
0.027
0.047
0.052
0.033
0.044
0.069
0.067
0.067
0.076
0.073
0.064
0.093
0.093
0.084
0.103
0.125
0.122
0.128
0.157
0.159
0.15
0.161
0.173
0.168
0.172
0.175
0.158
0.155
0.162
0.147
0.116
0.113
0.1
0.058
0.03
0.024
-0.004
-0.026
-0.031
-0.045
-0.067
-0.055
-0.051
-0.073
-0.073
-0.06
-0.078
-0.09
-0.071
-0.068
-0.083
-0.08
-0.063
-0.072
-0.071
-0.059
-0.061
-0.077
-0.065
-0.063
-0.079
-0.074
-0.049
-0.063
-0.064
-0.047
-0.045
-0.064
-0.053
-0.048
-0.063
-0.058
-0.045
-0.051
-0.055
-0.039
-0.037
-0.05
-0.039
-0.032
-0.044
-0.039
-0.035
-0.046
-0.05
-0.034
-0.023
-0.023
0.002
0.027
0.044
0.045
0.057
0.075
0.076
0.08
0.083
0.079
0.07
0.068
0.026
-0.001
-0.005
-0.02
-0.043
-0.043
-0.062
-0.09
-0.091
-0.085
-0.109
-0.123
-0.108
-0.106
-0.117
-0.107
-0.1
-0.118
-0.112
-0.1
-0.109
-0.107
-0.082
-0.074
-0.077
-0.042
0.052
0.154
0.35
0.363
0.166
0.023
-0.104
-0.197
-0.207
-0.235
-0.279
-0.292
-0.204
-0.094
-0.063
-0.073
-0.064
-0.046
-0.053
-0.042
-0.037
-0.043
-0.032
-0.014
-0.014
-0.015
0.011
0.02
0.001
0.007
0.035
0.028
0.021
0.037
0.038
0.026
0.034
0.04
0.027
0.037
0.049
0.044
0.045
0.063
0.059
0.054
0.068
0.087
0.085
0.095
0.117
0.116
0.118
0.137
0.14
0.127
0.142
0.156
0.142
0.134
0.148
0.133
0.106
0.099
0.077
0.037
0.012
0
-0.026
-0.043
-0.037
-0.053
-0.081
-0.069
-0.07
-0.091
-0.088
-0.07
-0.082
-0.093
-0.077
-0.078
-0.093
-0.08
-0.067
-0.077
-0.076
-0.06
-0.067
-0.071
-0.054
-0.057
-0.068
-0.052
-0.044
-0.066
-0.069
-0.054
-0.051
-0.055
-0.038
-0.038
-0.053
-0.044
-0.03
-0.043
-0.049
-0.031
-0.039
-0.051
-0.033
-0.03
-0.038
-0.027
-0.012
-0.029
-0.043
-0.032
-0.032
-0.049
-0.04
-0.032
-0.041
-0.028
0.003
0.014
0.029
0.069
0.085
0.065
0.07
0.106
0.108
0.11
0.133
0.12
0.097
0.095
0.071
0.04
0.025
0.029
0.003
-0.023
-0.028
-0.043
-0.064
-0.057
-0.056
-0.081
-0.07
-0.057
-0.067
-0.074
-0.056
-0.062
-0.064
-0.055
-0.038
-0.037
-0.038
-0.02
-0.019
0.02
0.124
0.281
0.432
0.356
0.206
0.089
-0.044
-0.06
-0.091
-0.185
-0.244
-0.228
-0.15
-0.061
-0.031
-0.049
-0.036
-0.022
-0.024
-0.038
-0.018
-0.001
-0.006
-0.003
0.012
0.005
0.007
0.02
0.018
0.021
0.053
0.05
0.022
0.027
0.048
0.042
0.036
0.058
0.059
0.047
0.054
0.069
0.061
0.073
0.093
0.092
0.092
0.116
0.12
0.1
0.126
0.153
0.145
0.146
0.164
0.164
0.164
0.177
0.172
0.156
0.16
0.163
0.129
0.119
0.114
0.089
0.053
0.049
0.025
-0.009
-0.025
-0.026
-0.052
-0.053
-0.047
-0.059
-0.072
-0.066
-0.065
-0.082
-0.076
-0.063
-0.064
-0.073
-0.061
-0.057
-0.058
-0.053
-0.045
-0.06
-0.052
-0.04
-0.046
-0.042
-0.022
-0.019
-0.048
-0.04
-0.032
-0.041
-0.034
-0.014
-0.024
-0.043
-0.032
-0.027
-0.044
-0.036
-0.021
-0.042
-0.038
-0.026
-0.037
-0.055
-0.048
-0.048
-0.052
-0.043
-0.025
-0.033
-0.034
-0.007
-0.011
-0.02
0.01
0.035
0.04
0.054
0.06
0.068
0.079
0.089
0.088
0.085
0.086
0.086
0.045
0.015
0.009
-0.011
-0.03
-0.034
-0.049
-0.079
-0.075
-0.064
-0.079
-0.085
-0.077
-0.086
-0.09
-0.076
-0.076
-0.075
-0.068
-0.058
-0.071
-0.06
-0.046
-0.044
-0.051
0.005
0.086
0.209
0.434
0.467
0.331
0.229
0.113
0.004
-0.033
-0.103
-0.215
-0.281
-0.231
-0.138
-0.087
-0.077
-0.057
-0.058
-0.068
-0.057
-0.036
-0.039
-0.033
-0.016
-0.022
-0.02
0
-0.001
-0.008
0.006
0.016
0.007
0.004
0.028
0.029
0.02
0.036
0.045
0.039
0.047
0.054
0.035
0.039
0.069
0.077
0.071
0.092
0.105
0.101
0.112
0.128
0.128
0.131
0.157
0.155
0.137
0.149
0.164
0.155
0.162
0.17
0.153
0.124
0.124
0.105
0.073
0.06
0.049
0.019
-0.001
-0.001
-0.025
-0.043
-0.04
-0.042
-0.061
-0.055
-0.046
-0.054
-0.063
-0.036
-0.045
-0.058
-0.041
-0.043
-0.058
-0.051
-0.038
-0.046
-0.042
-0.029
-0.033
-0.043
-0.027
-0.02
-0.03
-0.025
-0.012
-0.022
-0.02
-0.014
-0.02
-0.032
-0.022
-0.017
-0.026
-0.02
-0.008
-0.019
-0.026
-0.013
-0.021
-0.034
-0.026
-0.019
-0.037
-0.037
-0.017
-0.018
-0.023
0.006
0.026
0.026
0.061
0.083
0.07
0.07
0.114
0.104
0.081
0.104
0.093
0.058
0.055
0.045
0.007
-0.018
-0.017
-0.031
-0.065
-0.065
-0.082
-0.101
-0.103
-0.093
-0.114
-0.115
-0.091
-0.097
-0.115
-0.109
-0.096
-0.11
-0.103
-0.084
-0.076
-0.083
-0.056
-0.04
0.002
0.107
0.285
0.424
0.314
0.149
0.002
-0.169
-0.202
-0.211
-0.277
-0.302
-0.254
-0.165
-0.091
-0.058
-0.065
-0.07
-0.053
-0.056
-0.071
-0.061
-0.034
-0.045
-0.047
-0.023
-0.011
-0.014
-0.004
0.007
0.002
0.01
0.025
0.019
0.029
0.052
0.046
0.032
0.038
0.049
0.042
0.043
0.06
0.061
0.056
0.076
0.079
0.077
0.096
0.114
0.102
0.115
0.139
0.136
0.126
0.134
0.136
0.117
0.134
0.144
0.138
0.125
0.123
0.098
0.069
0.064
0.046
0.005
-0.01
-0.013
-0.037
-0.063
-0.058
-0.065
-0.091
-0.079
-0.078
-0.099
-0.099
-0.088
-0.102
-0.104
-0.084
-0.09
-0.107
-0.091
-0.076
-0.087
-0.077
-0.059
-0.065
-0.077
-0.063
-0.065
-0.073
-0.063
-0.045
-0.069
-0.074
-0.054
-0.053
-0.063
-0.049
-0.044
-0.058
-0.055
-0.046
-0.056
-0.058
-0.045
-0.048
-0.06
-0.048
-0.041
-0.055
-0.053
-0.047
-0.062
-0.06
-0.044
-0.041
-0.049
-0.029
-0.017
-0.022
-0.005
0.027
0.038
0.049
0.062
0.077
0.081
0.091
0.1
0.094
0.088
0.084
0.061
0.025
0.015
-0.005
-0.027
-0.025
-0.025
-0.052
-0.063
-0.057
-0.072
-0.091
-0.08
-0.078
-0.093
-0.084
-0.072
-0.071
-0.072
-0.058
-0.062
-0.064
-0.056
-0.042
-0.042
-0.01
0.073
0.158
0.346
0.409
0.224
0.058
-0.059
-0.176
-0.19
-0.224
-0.26
-0.283
-0.202
-0.088
-0.04
-0.048
-0.034
-0.02
-0.027
-0.017
-0.004
-0.002
-0.004
0.008
0.008
-0.002
0.015
0.035
0.019
0.025
0.054
0.052
0.034
0.046
0.053
0.048
0.052
0.063
0.061
0.065
0.086
0.079
0.068
0.087
0.096
0.083
0.098
0.12
0.115
0.115
0.144
0.152
0.144
0.159
0.172
0.159
0.164
0.185
0.168
0.157
0.169
0.163
0.135
0.123
0.105
0.067
0.046
0.029
-0.003
-0.024
-0.021
-0.041
-0.071
-0.072
-0.059
-0.075
-0.083
-0.068
-0.081
-0.097
-0.086
-0.077
-0.082
-0.078
-0.073
-0.083
-0.083
-0.056
-0.059
-0.078
-0.066
-0.055
-0.069
-0.063
-0.043
-0.052
-0.056
-0.045
-0.046
-0.054
-0.043
-0.032
-0.055
-0.05
-0.031
-0.042
-0.049
-0.028
-0.033
-0.044
-0.042
-0.033
-0.044
-0.04
-0.027
-0.036
-0.044
-0.028
-0.03
-0.048
-0.048
-0.03
-0.038
-0.033
-0.008
-0.001
0.006
0.039
0.059
0.052
0.048
0.064
0.081
0.088
0.106
0.114
0.092
0.089
0.078
0.027
0.006
0.001
-0.009
-0.029
-0.039
-0.056
-0.074
-0.066
-0.057
-0.075
-0.086
-0.082
-0.087
-0.097
-0.083
-0.081
-0.094
-0.086
-0.079
-0.089
-0.078
-0.053
-0.051
-0.052
0.018
0.101
0.249
0.393
0.284
0.093
-0.026
-0.146
-0.169
-0.191
-0.24
-0.283
-0.244
-0.136
-0.058
-0.061
-0.059
-0.038
-0.027
-0.04
-0.03
-0.023
-0.025
-0.015
0.005
-0.008
-0.002
0.018
0.019
0.001
0.022
0.041
0.027
0.022
0.043
0.047
0.046
0.058
0.056
0.042
0.054
0.065
0.052
0.064
0.09
0.084
0.076
0.114
0.121
0.102
0.109
0.128
0.123
0.131
0.157
0.154
0.151
0.162
0.154
0.135
0.144
0.158
0.144
0.119
0.111
0.082
0.051
0.045
0.03
-0.004
-0.015
-0.019
-0.047
-0.061
-0.045
-0.057
-0.075
-0.064
-0.055
-0.068
-0.067
-0.051
-0.066
-0.076
-0.062
-0.064
-0.076
-0.064
-0.053
-0.069
-0.066
-0.053
-0.06
-0.075
-0.057
-0.052
-0.06
-0.048
-0.041
-0.056
-0.06
-0.043
-0.046
-0.049
-0.036
-0.038
-0.048
-0.031
-0.015
-0.027
-0.042
-0.021
-0.028
-0.036
-0.024
-0.022
-0.036
-0.033
-0.018
-0.03
-0.029
-0.014
-0.015
-0.023
-0.005
0.005
-0.011
0.008
0.038
0.043
0.06
0.092
0.081
0.066
0.104
0.122
0.106
0.112
0.123
0.1
0.076
0.058
0.034
0.003
0.006
0.009
-0.027
-0.047
-0.04
-0.048
-0.065
-0.072
-0.069
-0.086
-0.081
-0.063
-0.072
-0.088
-0.06
-0.068
-0.074
-0.061
-0.044
-0.062
-0.055
-0.027
0.008
0.107
0.32
0.478
0.393
0.286
0.198
0.051
0.009
-0.023
-0.159
-0.262
-0.258
-0.176
-0.12
-0.071
-0.053
-0.061
-0.056
-0.047
-0.053
-0.055
-0.034
-0.038
-0.05
-0.035
-0.012
-0.025
-0.022
0.002
0.003
-0.003
0.009
0.008
0.003
0.018
0.03
0.025
0.027
0.049
0.049
0.041
0.049
0.061
0.049
0.053
0.081
0.084
0.093
0.102
0.105
0.092
0.108
0.129
0.121
0.13
0.15
0.136
0.126
0.138
0.131
0.118
0.116
0.119
0.085
0.068
0.066
0.032
0.002
-0.005
-0.019
-0.045
-0.046
-0.037
-0.05
-0.059
-0.048
-0.062
-0.08
-0.069
-0.057
-0.071
-0.061
-0.058
-0.07
-0.067
-0.047
-0.046
-0.06
-0.043
-0.035
-0.047
-0.046
-0.026
-0.036
-0.042
-0.028
-0.029
-0.042
-0.034
-0.021
-0.025
-0.016
-0.012
-0.03
-0.038
-0.016
-0.021
-0.034
-0.025
-0.017
-0.025
-0.028
-0.015
-0.022
-0.04
-0.026
-0.025
-0.033
-0.029
-0.011
-0.011
0.002
0.039
0.055
0.064
0.07
0.064
0.062
0.093
0.095
0.082
0.087
0.085
0.074
0.049
0.029
0.008
-0.018
-0.021
-0.014
-0.044
-0.067
-0.064
-0.07
-0.094
-0.081
-0.07
-0.078
-0.077
-0.066
-0.08
-0.082
-0.068
-0.064
-0.079
-0.057
-0.042
-0.049
-0.036
0.006
0.068
0.179
0.402
0.479
0.316
0.183
0.061
-0.083
-0.1
-0.138
-0.234
-0.283
-0.213
-0.111
-0.066
-0.051
-0.037
-0.031
-0.033
-0.014
-0.017
-0.019
-0.006
0.007
-0.009
0.005
0.03
0.022
0.011
0.028
0.036
0.025
0.041
0.054
0.045
0.044
0.067
0.062
0.057
0.077
0.068
0.044
0.063
0.083
0.073
0.083
0.107
0.111
0.105
0.118
0.127
0.126
0.141
0.157
0.148
0.152
0.177
0.169
0.152
0.155
0.155
0.136
0.123
0.119
0.091
0.064
0.054
0.023
-0.015
-0.019
-0.027
-0.06
-0.066
-0.057
-0.079
-0.085
-0.075
-0.072
-0.086
-0.077
-0.067
-0.075
-0.071
-0.057
-0.067
-0.068
-0.05
-0.05
-0.065
-0.05
-0.038
-0.058
-0.052
-0.039
-0.042
-0.052
-0.033
-0.033
-0.054
-0.047
-0.027
-0.044
-0.048
-0.03
-0.035
-0.047
-0.035
-0.027
-0.048
-0.041
-0.031
-0.04
-0.039
-0.021
-0.028
-0.051
-0.042
-0.036
-0.042
-0.044
-0.037
-0.052
-0.055
-0.043
-0.037
-0.05
-0.018
0
-0.016
-0.001
0.039
0.055
0.037
0.046
0.068
0.056
0.068
0.093
0.07
0.054
0.048
0.016
-0.022
-0.024
-0.023
-0.057
-0.069
-0.077
-0.1
-0.104
-0.092
-0.105
-0.124
-0.11
-0.106
-0.123
-0.123
-0.096
-0.103
-0.117
-0.097
-0.093
-0.096
-0.073
-0.053
-0.05
0.01
0.12
0.282
0.4
0.272
0.082
-0.067
-0.194
-0.215
-0.234
-0.284
-0.29
-0.243
-0.151
-0.069
-0.058
-0.077
-0.063
-0.038
-0.054
-0.061
-0.036
-0.03
-0.038
-0.024
-0.016
-0.019
-0.013
0.007
-0.008
0.003
0.035
0.035
0.026
0.037
0.036
0.02
0.029
0.044
0.044
0.043
0.065
0.066
0.06
0.084
0.094
0.084
0.093
0.122
0.119
0.114
0.142
0.16
0.145
0.154
0.162
0.151
0.151
0.167
0.153
0.136
0.143
0.132
0.093
0.088
0.08
0.045
0.023
0.018
-0.008
-0.043
-0.043
-0.057
-0.084
-0.086
-0.073
-0.084
-0.082
-0.066
-0.074
-0.094
-0.085
-0.065
-0.085
-0.082
-0.069
-0.082
-0.091
-0.065
-0.059
-0.078
-0.061
-0.049
-0.066
-0.059
-0.034
-0.05
-0.057
-0.051
-0.041
-0.053
-0.043
-0.034
-0.047
-0.046
-0.017
-0.03
-0.048
-0.037
-0.032
-0.05
-0.038
-0.018
-0.044
-0.042
-0.025
-0.036
-0.05
-0.037
-0.034
-0.046
-0.033
-0.019
-0.04
-0.043
-0.028
-0.022
-0.019
0.006
0.03
0.04
0.067
0.078
0.053
0.061
0.097
0.093
0.085
0.101
0.09
0.062
0.039
0.039
0
-0.016
-0.015
-0.025
-0.067
-0.072
-0.067
-0.085
-0.094
-0.081
-0.097
-0.103
-0.081
-0.077
-0.098
-0.085
-0.069
-0.087
-0.089
-0.059
-0.053
-0.057
-0.034
-0.008
0.051
0.165
0.369
0.381
0.185
0.065
-0.071
-0.185
-0.171
-0.21
-0.28
-0.272
-0.172
-0.09
-0.057
-0.042
-0.044
-0.049
-0.028
-0.016
-0.034
-0.028
-0.012
-0.018
-0.019
0.004
0.017
0.003
0.014
0.027
0.021
0.022
0.039
0.034
0.037
0.056
0.057
0.04
0.049
0.059
0.044
0.047
0.072
0.075
0.066
0.086
0.099
0.098
0.106
0.126
0.118
0.124
0.153
0.155
0.14
0.158
0.169
0.158
0.161
0.167
0.153
0.14
0.135
0.116
0.088
0.075
0.057
0.019
0.002
0.004
-0.024
-0.042
-0.043
-0.043
-0.07
-0.067
-0.065
-0.084
-0.082
-0.065
-0.074
-0.079
-0.064
-0.057
-0.068
-0.058
-0.037
-0.065
-0.066
-0.047
-0.05
-0.059
-0.045
-0.04
-0.051
-0.04
-0.024
-0.036
-0.039
-0.021
-0.025
-0.041
-0.03
-0.022
-0.036
-0.032
-0.03
-0.042
-0.05
-0.024
-0.028
-0.041
-0.031
-0.018
-0.033
-0.04
-0.029
-0.036
-0.045
-0.03
-0.022
-0.036
-0.025
-0.019
-0.031
-0.035
-0.023
-0.027
-0.036
-0.024
-0.023
-0.036
-0.022
0.008
0.008
0.025
0.054
0.062
0.065
0.072
0.085
0.092
0.1
0.106
0.106
0.093
0.1
0.088
0.049
0.035
0.023
0.002
-0.017
-0.031
-0.053
-0.065
-0.054
-0.071
-0.095
-0.09
-0.07
-0.081
-0.081
-0.074
-0.08
-0.089
-0.074
-0.071
-0.074
-0.053
-0.041
-0.05
-0.04
0.037
0.143
0.344
0.461
0.356
0.213
0.132
0.015
-0.012
-0.077
-0.177
-0.258
-0.242
-0.141
-0.071
-0.067
-0.068
-0.05
-0.049
-0.053
-0.034
-0.028
-0.032
-0.026
-0.015
-0.022
-0.007
0.015
0.003
-0.004
0.024
0.031
0.015
0.027
0.05
0.039
0.037
0.049
0.046
0.053
0.071
0.072
0.061
0.082
0.101
0.092
0.091
0.121
0.12
0.12
0.134
0.146
0.14
0.15
0.17
0.161
0.166
0.177
0.171
0.159
0.174
0.169
0.136
0.124
0.125
0.103
0.176
0.208
-0.022
-0.027
-0.042
-0.04
-0.049
-0.039
-0.037
-0.062
-0.061
-0.037
-0.044
-0.072
-0.065
-0.043
-0.061
-0.069
-0.055
-0.049
-0.052
-0.049
-0.054
-0.058
-0.038
-0.04
-0.061
-0.054
-0.027
-0.034
-0.044
-0.028
-0.012
-0.026
-0.037
-0.031
-0.034
-0.024
-0.017
-0.024
-0.034
-0.005
-0.008
-0.027
-0.025
-0.001
-0.021
-0.042
-0.025
-0.029
-0.036
-0.034
-0.033
-0.045
-0.039
-0.022
-0.032
-0.037
-0.017
-0.021
-0.04
-0.035
-0.013
-0.024
-0.016
0.014
0.024
0.037
0.066
0.078
0.054
0.075
0.108
0.094
0.1
0.13
0.11
0.085
0.078
0.053
0.005
-0.006
0.004
-0.016
-0.04
-0.046
-0.058
-0.072
-0.057
-0.066
-0.083
-0.082
-0.059
-0.073
-0.084
-0.066
-0.068
-0.082
-0.075
-0.062
-0.075
-0.063
-0.04
-0.023
0.028
0.147
0.348
0.466
0.344
0.221
0.072
-0.074
-0.078
-0.124
-0.225
-0.276
-0.245
-0.168
-0.082
-0.053
-0.055
-0.058
-0.039
-0.049
-0.054
-0.033
-0.017
-0.021
-0.012
-0.006
-0.013
-0.01
0.002
0.013
0.018
0.034
0.036
0.023
0.036
0.056
0.046
0.042
0.059
0.06
0.051
0.061
0.071
0.057
0.059
0.08
0.086
0.087
0.105
0.115
0.106
0.12
0.134
0.124
0.127
0.148
0.147
0.139
0.149
0.148
0.13
0.129
0.127
0.101
0.074
0.064
0.034
0.002
-0.002
-0.016
-0.052
-0.053
-0.051
-0.068
-0.074
-0.068
-0.07
-0.089
-0.076
-0.073
-0.086
-0.08
-0.063
-0.072
-0.075
-0.062
-0.056
-0.07
-0.051
-0.047
-0.063
-0.063
-0.045
-0.054
-0.064
-0.041
-0.034
-0.05
-0.043
-0.031
-0.047
-0.042
-0.026
-0.04
-0.05
-0.033
-0.03
-0.046
-0.038
-0.024
-0.04
-0.042
-0.026
-0.035
-0.053
-0.042
-0.038
-0.057
-0.052
-0.044
-0.055
-0.062
-0.036
-0.041
-0.063
-0.055
-0.048
-0.051
-0.052
-0.039
-0.048
-0.053
-0.032
-0.029
-0.047
-0.022
-0.006
-0.006
0.011
0.041
0.056
0.05
0.055
0.067
0.076
0.082
0.094
0.092
0.078
0.075
0.041
0.009
0.004
-0.006
-0.037
-0.042
-0.048
-0.075
-0.092
-0.086
-0.106
-0.119
-0.103
-0.097
-0.11
-0.105
-0.095
-0.107
-0.113
-0.097
-0.094
-0.093
-0.072
-0.047
-0.05
-0.031
0.056
0.141
0.321
0.409
0.23
0.058
-0.063
-0.181
-0.208
-0.23
-0.27
-0.295
-0.226
-0.116
-0.072
-0.078
-0.07
-0.049
-0.044
-0.035
-0.023
-0.028
-0.027
-0.011
-0.005
-0.018
0.003
0.027
0.022
0.021
0.046
0.045
0.036
0.05
0.056
0.048
0.053
0.07
0.069
0.075
0.087
0.087
0.075
0.095
0.107
0.095
0.097
0.125
0.124
0.124
0.141
0.153
0.156
0.172
0.177
0.166
0.178
0.187
0.174
0.157
0.174
0.172
0.145
0.129
0.13
0.096
0.069
0.058
0.028
-0.004
-0.009
-0.025
-0.052
-0.052
-0.041
-0.061
-0.074
-0.058
-0.064
-0.076
-0.067
-0.054
-0.065
-0.057
-0.047
-0.056
-0.059
-0.051
-0.052
-0.073
-0.056
-0.046
-0.053
-0.053
-0.037
-0.047
-0.058
-0.048
-0.042
-0.053
-0.041
-0.033
-0.043
-0.038
-0.024
-0.024
-0.038
-0.031
-0.035
-0.05
-0.045
-0.03
-0.038
-0.041
-0.019
-0.033
-0.043
-0.028
-0.022
-0.038
-0.031
-0.024
-0.036
-0.043
-0.031
-0.036
-0.05
-0.038
-0.028
-0.038
-0.039
-0.027
-0.033
-0.045
-0.034
-0.035
-0.05
-0.03
-0.011
-0.008
0.004
0.042
0.053
0.059
0.058
0.069
0.077
0.085
0.099
0.093
0.083
0.082
0.055
0.012
0
-0.012
-0.033
-0.043
-0.056
-0.08
-0.092
-0.078
-0.093
-0.114
-0.103
-0.1
-0.115
-0.105
-0.1
-0.105
-0.11
-0.088
-0.094
-0.09
-0.075
-0.057
-0.059
-0.035
0.043
0.125
0.308
0.411
0.25
0.075
-0.045
-0.152
-0.17
-0.2
-0.252
-0.295
-0.229
-0.119
-0.069
-0.079
-0.07
-0.047
-0.048
-0.05
-0.033
-0.031
-0.031
-0.01
-0.006
-0.015
-0.003
0.018
0.007
0.009
0.04
0.039
0.023
0.033
0.045
0.035
0.041
0.052
0.045
0.043
0.067
0.062
0.052
0.068
0.092
0.075
0.079
0.101
0.1
0.1
0.122
0.131
0.126
0.141
0.147
0.144
0.146
0.167
0.149
0.136
0.149
0.142
0.114
0.106
0.099
0.068
0.043
0.028
0.001
-0.026
-0.027
-0.046
-0.073
-0.08
-0.075
-0.092
-0.091
-0.068
-0.074
-0.093
-0.09
-0.073
-0.092
-0.091
-0.082
-0.091
-0.099
-0.076
-0.08
-0.092
-0.08
-0.058
-0.074
-0.072
-0.055
-0.06
-0.066
-0.053
-0.045
-0.062
-0.051
-0.04
-0.049
-0.041
-0.019
-0.024
-0.03
-0.018
-0.025
-0.037
-0.028
-0.011
-0.022
-0.033
-0.025
-0.028
-0.036
-0.016
-0.016
-0.033
-0.032
-0.022
-0.029
-0.031
-0.012
-0.011
-0.03
-0.02
-0.005
-0.023
-0.014
0
-0.011
-0.024
-0.005
-0.009
-0.021
-0.004
0.01
0.008
0.019
0.051
0.064
0.073
0.084
0.085
0.087
0.103
0.118
0.12
0.105
0.108
0.082
0.046
0.035
0.022
-0.002
-0.01
-0.013
-0.055
-0.071
-0.058
-0.068
-0.094
-0.08
-0.078
-0.083
-0.082
-0.059
-0.065
-0.069
-0.058
-0.065
-0.073
-0.053
-0.038
-0.041
-0.026
0.034
0.132
0.332
0.49
0.387
0.235
0.148
0.032
-0.004
-0.065
-0.166
-0.263
-0.251
-0.145
-0.071
-0.064
-0.058
-0.051
-0.056
-0.053
-0.037
-0.033
-0.041
-0.021
-0.01
-0.015
-0.006
0.013
0.003
0.004
0.025
0.027
0.013
0.023
0.034
0.035
0.04
0.052
0.046
0.047
0.065
0.068
0.06
0.076
0.092
0.081
0.088
0.116
0.115
0.107
0.13
0.143
0.138
0.147
0.167
0.162
0.16
0.171
0.172
0.157
0.165
0.164
0.131
0.127
0.125
0.095
0.07
0.065
0.039
0.002
-0.006
-0.015
-0.044
-0.048
-0.043
-0.07
-0.077
-0.06
-0.06
-0.083
-0.069
-0.062
-0.078
-0.08
-0.059
-0.056
-0.057
-0.047
-0.051
-0.073
-0.058
-0.047
-0.051
-0.045
-0.031
-0.035
-0.045
-0.028
-0.03
-0.045
-0.035
-0.016
-0.027
-0.025
-0.005
-0.012
-0.027
-0.01
-0.013
-0.029
-0.022
-0.011
-0.023
-0.026
-0.009
-0.016
-0.029
-0.017
-0.013
-0.029
-0.024
-0.012
-0.026
-0.026
-0.007
-0.002
-0.017
-0.003
0.019
0.014
0.032
0.068
0.075
0.085
0.101
0.09
0.103
0.123
0.125
0.116
0.125
0.118
0.097
0.06
0.049
0.03
0.003
-0.005
-0.007
-0.043
-0.059
-0.052
-0.07
-0.084
-0.075
-0.072
-0.082
-0.08
-0.074
-0.08
-0.077
-0.051
-0.052
-0.059
-0.047
-0.042
-0.048
-0.032
0.029
0.109
0.254
0.465
0.443
0.276
0.162
0.009
-0.069
-0.088
-0.158
-0.257
-0.288
-0.208
-0.117
-0.083
-0.067
-0.05
-0.058
-0.056
-0.041
-0.04
-0.048
-0.024
-0.025
-0.03
-0.002
0.019
0.008
0.003
0.029
0.032
0.021
0.034
0.041
0.035
0.046
0.053
0.045
0.039
0.057
0.052
0.038
0.059
0.078
0.068
0.067
0.09
0.098
0.1
0.118
0.127
0.126
0.15
0.159
0.149
0.155
0.173
0.162
0.146
0.158
0.163
0.144
0.134
0.131
0.091
0.064
0.054
0.031
0
-0.007
-0.023
-0.049
-0.05
-0.044
-0.071
-0.078
-0.06
-0.067
-0.083
-0.073
-0.062
-0.074
-0.068
-0.063
-0.077
-0.081
-0.06
-0.056
-0.068
-0.058
-0.045
-0.059
-0.055
-0.041
-0.044
-0.055
-0.042
-0.04
-0.051
-0.043
-0.035
-0.046
-0.048
-0.034
-0.044
-0.051
-0.037
-0.035
-0.052
-0.043
-0.041
-0.055
-0.055
-0.04
-0.041
-0.053
-0.039
-0.04
-0.06
-0.056
-0.042
-0.051
-0.053
-0.038
-0.046
-0.059
-0.04
-0.033
-0.053
-0.049
-0.034
-0.039
-0.04
-0.003
0.018
0.021
0.041
0.072
0.053
0.051
0.084
0.087
0.073
0.092
0.092
0.058
0.047
0.028
-0.004
-0.032
-0.013
-0.036
-0.066
-0.072
-0.081
-0.095
-0.099
-0.09
-0.106
-0.11
-0.095
-0.098
-0.11
-0.094
-0.085
-0.099
-0.099
-0.07
-0.071
-0.06
-0.029
-0.015
0.033
0.13
0.304
0.425
0.284
0.102
-0.045
-0.195
-0.212
-0.215
-0.274
-0.297
-0.236
-0.146
-0.076
-0.049
-0.057
-0.056
-0.04
-0.037
-0.057
-0.036
-0.014
-0.017
-0.017
0.001
-0.001
-0.007
0.008
0.018
0.016
0.029
0.033
0.022
0.024
0.042
0.042
0.027
0.045
0.059
0.047
0.052
0.063
0.065
0.072
0.085
0.082
0.085
0.108
0.127
0.113
0.124
0.15
0.149
0.146
0.166
0.174
0.166
0.171
0.169
0.15
0.144
0.144
0.117
0.086
0.078
0.058
0.012
0.002
0.001
-0.028
-0.058
-0.057
-0.076
-0.091
-0.088
-0.089
-0.101
-0.101
-0.081
-0.098
-0.096
-0.078
-0.077
-0.1
-0.083
-0.076
-0.088
-0.081
-0.064
-0.069
-0.069
-0.061
-0.061
-0.075
-0.068
-0.064
-0.081
-0.07
-0.054
-0.06
-0.072
-0.057
-0.054
-0.061
-0.05
-0.048
-0.058
-0.059
-0.043
-0.052
-0.064
-0.049
-0.048
-0.061
-0.051
-0.037
-0.046
-0.05
-0.04
-0.046
-0.048
-0.036
-0.034
-0.051
-0.052
-0.032
-0.041
-0.045
-0.027
-0.02
-0.024
0.002
0.026
0.036
0.058
0.089
0.073
0.065
0.099
0.11
0.094
0.114
0.125
